Title="Fields"
Variables="X""Y""Velocity""Phi""Effective Viscosity""Dynamic Viscosity""Density""Eddy Viscosity""K""Omega""S"
Zone I=52 J=52 F=POINT
   -1.214864E-02	    6.022430E-05	    0.000000E+00	    0.000000E+00	    1.000000E-03	    1.000000E-03	    1.000000E+03	    0.000000E+00	    0.000000E+00	    0.000000E+00	    0.000000E+00	
   -1.214840E-02	    7.587059E-05	    0.000000E+00	    0.000000E+00	    1.000000E-03	    1.000000E-03	    1.000000E+03	    0.000000E+00	    0.000000E+00	    0.000000E+00	    0.000000E+00	
   -1.214760E-02	    1.201162E-04	    0.000000E+00	    0.000000E+00	    1.000000E-03	    1.000000E-03	    1.000000E+03	    0.000000E+00	    0.000000E+00	    0.000000E+00	    0.000000E+00	
   -1.214604E-02	    1.887791E-04	    0.000000E+00	    0.000000E+00	    1.000000E-03	    1.000000E-03	    1.000000E+03	    0.000000E+00	    0.000000E+00	    0.000000E+00	    0.000000E+00	
   -1.214292E-02	    2.931943E-04	    0.000000E+00	    0.000000E+00	    1.000000E-03	    1.000000E-03	    1.000000E+03	    0.000000E+00	    0.000000E+00	    0.000000E+00	    0.000000E+00	
   -1.213664E-02	    4.481479E-04	    0.000000E+00	    0.000000E+00	    1.000000E-03	    1.000000E-03	    1.000000E+03	    0.000000E+00	    0.000000E+00	    0.000000E+00	    0.000000E+00	
   -1.212408E-02	    6.717413E-04	    0.000000E+00	    0.000000E+00	    1.000000E-03	    1.000000E-03	    1.000000E+03	    0.000000E+00	    0.000000E+00	    0.000000E+00	    0.000000E+00	
   -1.209956E-02	    9.844691E-04	    0.000000E+00	    0.000000E+00	    1.000000E-03	    1.000000E-03	    1.000000E+03	    0.000000E+00	    0.000000E+00	    0.000000E+00	    0.000000E+00	
   -1.205344E-02	    1.407248E-03	    0.000000E+00	    0.000000E+00	    1.000000E-03	    1.000000E-03	    1.000000E+03	    0.000000E+00	    0.000000E+00	    0.000000E+00	    0.000000E+00	
   -1.197068E-02	    1.958259E-03	    0.000000E+00	    0.000000E+00	    1.000000E-03	    1.000000E-03	    1.000000E+03	    0.000000E+00	    0.000000E+00	    0.000000E+00	    0.000000E+00	
   -1.182998E-02	    2.648730E-03	    0.000000E+00	    0.000000E+00	    1.000000E-03	    1.000000E-03	    1.000000E+03	    0.000000E+00	    0.000000E+00	    0.000000E+00	    0.000000E+00	
   -1.160451E-02	    3.478208E-03	    0.000000E+00	    0.000000E+00	    1.000000E-03	    1.000000E-03	    1.000000E+03	    0.000000E+00	    0.000000E+00	    0.000000E+00	    0.000000E+00	
   -1.126508E-02	    4.430482E-03	    0.000000E+00	    0.000000E+00	    1.000000E-03	    1.000000E-03	    1.000000E+03	    0.000000E+00	    0.000000E+00	    0.000000E+00	    0.000000E+00	
   -1.078595E-02	    5.471869E-03	    0.000000E+00	    0.000000E+00	    1.000000E-03	    1.000000E-03	    1.000000E+03	    0.000000E+00	    0.000000E+00	    0.000000E+00	    0.000000E+00	
   -1.015216E-02	    6.553542E-03	    0.000000E+00	    0.000000E+00	    1.000000E-03	    1.000000E-03	    1.000000E+03	    0.000000E+00	    0.000000E+00	    0.000000E+00	    0.000000E+00	
   -9.365676E-03	    7.618437E-03	    0.000000E+00	    0.000000E+00	    1.000000E-03	    1.000000E-03	    1.000000E+03	    0.000000E+00	    0.000000E+00	    0.000000E+00	    0.000000E+00	
   -8.447592E-03	    8.611236E-03	    0.000000E+00	    0.000000E+00	    1.000000E-03	    1.000000E-03	    1.000000E+03	    0.000000E+00	    0.000000E+00	    0.000000E+00	    0.000000E+00	
   -7.434908E-03	    9.488112E-03	    0.000000E+00	    0.000000E+00	    1.000000E-03	    1.000000E-03	    1.000000E+03	    0.000000E+00	    0.000000E+00	    0.000000E+00	    0.000000E+00	
   -6.373132E-03	    1.022286E-02	    0.000000E+00	    0.000000E+00	    1.000000E-03	    1.000000E-03	    1.000000E+03	    0.000000E+00	    0.000000E+00	    0.000000E+00	    0.000000E+00	
   -5.307702E-03	    1.080785E-02	    0.000000E+00	    0.000000E+00	    1.000000E-03	    1.000000E-03	    1.000000E+03	    0.000000E+00	    0.000000E+00	    0.000000E+00	    0.000000E+00	
   -4.277189E-03	    1.125075E-02	    0.000000E+00	    0.000000E+00	    1.000000E-03	    1.000000E-03	    1.000000E+03	    0.000000E+00	    0.000000E+00	    0.000000E+00	    0.000000E+00	
   -3.309761E-03	    1.156901E-02	    0.000000E+00	    0.000000E+00	    1.000000E-03	    1.000000E-03	    1.000000E+03	    0.000000E+00	    0.000000E+00	    0.000000E+00	    0.000000E+00	
   -2.422724E-03	    1.178450E-02	    0.000000E+00	    0.000000E+00	    1.000000E-03	    1.000000E-03	    1.000000E+03	    0.000000E+00	    0.000000E+00	    0.000000E+00	    0.000000E+00	
   -1.624046E-03	    1.191947E-02	    0.000000E+00	    0.000000E+00	    1.000000E-03	    1.000000E-03	    1.000000E+03	    0.000000E+00	    0.000000E+00	    0.000000E+00	    0.000000E+00	
   -9.147101E-04	    1.199402E-02	    0.000000E+00	    0.000000E+00	    1.000000E-03	    1.000000E-03	    1.000000E+03	    0.000000E+00	    0.000000E+00	    0.000000E+00	    0.000000E+00	
   -2.910617E-04	    1.202501E-02	    0.000000E+00	    0.000000E+00	    1.000000E-03	    1.000000E-03	    1.000000E+03	    0.000000E+00	    0.000000E+00	    0.000000E+00	    0.000000E+00	
    2.910617E-04	    1.202501E-02	    0.000000E+00	    0.000000E+00	    1.000000E-03	    1.000000E-03	    1.000000E+03	    0.000000E+00	    0.000000E+00	    0.000000E+00	    0.000000E+00	
    9.147101E-04	    1.199402E-02	    0.000000E+00	    0.000000E+00	    1.000000E-03	    1.000000E-03	    1.000000E+03	    0.000000E+00	    0.000000E+00	    0.000000E+00	    0.000000E+00	
    1.624046E-03	    1.191947E-02	    0.000000E+00	    0.000000E+00	    1.000000E-03	    1.000000E-03	    1.000000E+03	    0.000000E+00	    0.000000E+00	    0.000000E+00	    0.000000E+00	
    2.422724E-03	    1.178450E-02	    0.000000E+00	    0.000000E+00	    1.000000E-03	    1.000000E-03	    1.000000E+03	    0.000000E+00	    0.000000E+00	    0.000000E+00	    0.000000E+00	
    3.309761E-03	    1.156901E-02	    0.000000E+00	    0.000000E+00	    1.000000E-03	    1.000000E-03	    1.000000E+03	    0.000000E+00	    0.000000E+00	    0.000000E+00	    0.000000E+00	
    4.277189E-03	    1.125075E-02	    0.000000E+00	    0.000000E+00	    1.000000E-03	    1.000000E-03	    1.000000E+03	    0.000000E+00	    0.000000E+00	    0.000000E+00	    0.000000E+00	
    5.307702E-03	    1.080785E-02	    0.000000E+00	    0.000000E+00	    1.000000E-03	    1.000000E-03	    1.000000E+03	    0.000000E+00	    0.000000E+00	    0.000000E+00	    0.000000E+00	
    6.373132E-03	    1.022286E-02	    0.000000E+00	    0.000000E+00	    1.000000E-03	    1.000000E-03	    1.000000E+03	    0.000000E+00	    0.000000E+00	    0.000000E+00	    0.000000E+00	
    7.434908E-03	    9.488112E-03	    0.000000E+00	    0.000000E+00	    1.000000E-03	    1.000000E-03	    1.000000E+03	    0.000000E+00	    0.000000E+00	    0.000000E+00	    0.000000E+00	
    8.447592E-03	    8.611236E-03	    0.000000E+00	    0.000000E+00	    1.000000E-03	    1.000000E-03	    1.000000E+03	    0.000000E+00	    0.000000E+00	    0.000000E+00	    0.000000E+00	
    9.365676E-03	    7.618437E-03	    0.000000E+00	    0.000000E+00	    1.000000E-03	    1.000000E-03	    1.000000E+03	    0.000000E+00	    0.000000E+00	    0.000000E+00	    0.000000E+00	
    1.015216E-02	    6.553542E-03	    0.000000E+00	    0.000000E+00	    1.000000E-03	    1.000000E-03	    1.000000E+03	    0.000000E+00	    0.000000E+00	    0.000000E+00	    0.000000E+00	
    1.078595E-02	    5.471869E-03	    0.000000E+00	    0.000000E+00	    1.000000E-03	    1.000000E-03	    1.000000E+03	    0.000000E+00	    0.000000E+00	    0.000000E+00	    0.000000E+00	
    1.126508E-02	    4.430482E-03	    0.000000E+00	    0.000000E+00	    1.000000E-03	    1.000000E-03	    1.000000E+03	    0.000000E+00	    0.000000E+00	    0.000000E+00	    0.000000E+00	
    1.160451E-02	    3.478208E-03	    0.000000E+00	    0.000000E+00	    1.000000E-03	    1.000000E-03	    1.000000E+03	    0.000000E+00	    0.000000E+00	    0.000000E+00	    0.000000E+00	
    1.182998E-02	    2.648730E-03	    0.000000E+00	    0.000000E+00	    1.000000E-03	    1.000000E-03	    1.000000E+03	    0.000000E+00	    0.000000E+00	    0.000000E+00	    0.000000E+00	
    1.197068E-02	    1.958259E-03	    0.000000E+00	    0.000000E+00	    1.000000E-03	    1.000000E-03	    1.000000E+03	    0.000000E+00	    0.000000E+00	    0.000000E+00	    0.000000E+00	
    1.205344E-02	    1.407248E-03	    0.000000E+00	    0.000000E+00	    1.000000E-03	    1.000000E-03	    1.000000E+03	    0.000000E+00	    0.000000E+00	    0.000000E+00	    0.000000E+00	
    1.209956E-02	    9.844691E-04	    0.000000E+00	    0.000000E+00	    1.000000E-03	    1.000000E-03	    1.000000E+03	    0.000000E+00	    0.000000E+00	    0.000000E+00	    0.000000E+00	
    1.212408E-02	    6.717413E-04	    0.000000E+00	    0.000000E+00	    1.000000E-03	    1.000000E-03	    1.000000E+03	    0.000000E+00	    0.000000E+00	    0.000000E+00	    0.000000E+00	
    1.213664E-02	    4.481479E-04	    0.000000E+00	    0.000000E+00	    1.000000E-03	    1.000000E-03	    1.000000E+03	    0.000000E+00	    0.000000E+00	    0.000000E+00	    0.000000E+00	
    1.214292E-02	    2.931943E-04	    0.000000E+00	    0.000000E+00	    1.000000E-03	    1.000000E-03	    1.000000E+03	    0.000000E+00	    0.000000E+00	    0.000000E+00	    0.000000E+00	
    1.214604E-02	    1.887791E-04	    0.000000E+00	    0.000000E+00	    1.000000E-03	    1.000000E-03	    1.000000E+03	    0.000000E+00	    0.000000E+00	    0.000000E+00	    0.000000E+00	
    1.214760E-02	    1.201162E-04	    0.000000E+00	    0.000000E+00	    1.000000E-03	    1.000000E-03	    1.000000E+03	    0.000000E+00	    0.000000E+00	    0.000000E+00	    0.000000E+00	
    1.214840E-02	    7.587059E-05	    0.000000E+00	    0.000000E+00	    1.000000E-03	    1.000000E-03	    1.000000E+03	    0.000000E+00	    0.000000E+00	    0.000000E+00	    0.000000E+00	
    1.214864E-02	    6.022430E-05	    0.000000E+00	    0.000000E+00	    1.000000E-03	    1.000000E-03	    1.000000E+03	    0.000000E+00	    0.000000E+00	    0.000000E+00	    0.000000E+00	
   -1.214823E-02	    6.021683E-05	    0.000000E+00	    0.000000E+00	    1.000000E-03	    1.000000E-03	    1.000000E+03	    0.000000E+00	    0.000000E+00	    0.000000E+00	    0.000000E+00	
   -1.214788E-02	    7.586052E-05	    1.925509E-04	   -1.000000E+00	    1.000921E-03	    1.000000E-03	    1.000000E+03	    4.185144E-06	    1.319691E-03	    3.153275E+05	    1.391803E+05	
   -1.214679E-02	    1.200973E-04	    5.896214E-04	   -1.000000E+00	    1.000972E-03	    1.000000E-03	    1.000000E+03	    4.416560E-06	    5.863735E-04	    1.327670E+05	    5.263732E+05	
   -1.214476E-02	    1.887422E-04	    1.106895E-03	   -1.000000E+00	    1.001768E-03	    1.000000E-03	    1.000000E+03	    8.034437E-06	    7.856490E-04	    9.778519E+04	    7.503579E+05	
   -1.214094E-02	    2.931200E-04	    1.833182E-03	   -1.000000E+00	    1.003207E-03	    1.000000E-03	    1.000000E+03	    1.457503E-05	    1.071911E-03	    7.354432E+04	    8.518761E+05	
   -1.213361E-02	    4.479957E-04	    2.885900E-03	   -1.000000E+00	    1.005566E-03	    1.000000E-03	    1.000000E+03	    2.530159E-05	    1.382741E-03	    5.465038E+04	    9.012916E+05	
   -1.211955E-02	    6.714295E-04	    4.403971E-03	   -1.000000E+00	    1.009293E-03	    1.000000E-03	    1.000000E+03	    4.224271E-05	    1.715702E-03	    4.061533E+04	    9.302757E+05	
   -1.209293E-02	    9.838410E-04	    6.541700E-03	   -1.000000E+00	    1.014933E-03	    1.000000E-03	    1.000000E+03	    6.787729E-05	    2.062826E-03	    3.039052E+04	    9.493686E+05	
   -1.204401E-02	    1.406019E-03	    9.454486E-03	   -1.000000E+00	    1.023079E-03	    1.000000E-03	    1.000000E+03	    1.049035E-04	    2.411897E-03	    2.299158E+04	    9.605471E+05	
   -1.195765E-02	    1.955950E-03	    1.327459E-02	   -1.000000E+00	    1.034289E-03	    1.000000E-03	    1.000000E+03	    1.558603E-04	    2.750322E-03	    1.764608E+04	    9.624288E+05	
   -1.181256E-02	    2.644593E-03	    1.807906E-02	   -1.000000E+00	    1.048969E-03	    1.000000E-03	    1.000000E+03	    2.225857E-04	    3.067176E-03	    1.377975E+04	    9.525843E+05	
   -1.158209E-02	    3.471175E-03	    2.385613E-02	   -1.000000E+00	    1.067230E-03	    1.000000E-03	    1.000000E+03	    3.055910E-04	    3.354206E-03	    1.097613E+04	    9.295447E+05	
   -1.123737E-02	    4.419185E-03	    3.047801E-02	   -1.000000E+00	    1.088774E-03	    1.000000E-03	    1.000000E+03	    4.035166E-04	    3.606369E-03	    8.937352E+03	    8.946643E+05	
   -1.075321E-02	    5.454763E-03	    3.769402E-02	   -1.000000E+00	    1.112836E-03	    1.000000E-03	    1.000000E+03	    5.128898E-04	    3.821880E-03	    7.451661E+03	    8.524089E+05	
   -1.011527E-02	    6.529136E-03	    4.515443E-02	   -1.000000E+00	    1.138233E-03	    1.000000E-03	    1.000000E+03	    6.283327E-04	    4.001181E-03	    6.367933E+03	    8.084847E+05	
   -9.326135E-03	    7.585587E-03	    5.246056E-02	   -1.000000E+00	    1.163528E-03	    1.000000E-03	    1.000000E+03	    7.433076E-04	    4.145938E-03	    5.577688E+03	    7.675377E+05	
   -8.407302E-03	    8.569391E-03	    5.923327E-02	   -1.000000E+00	    1.187290E-03	    1.000000E-03	    1.000000E+03	    8.513179E-04	    4.259011E-03	    5.002844E+03	    7.322162E+05	
   -7.395856E-03	    9.437422E-03	    6.517976E-02	   -1.000000E+00	    1.208371E-03	    1.000000E-03	    1.000000E+03	    9.471413E-04	    4.344472E-03	    4.586931E+03	    7.034339E+05	
   -6.337080E-03	    1.016411E-02	    7.013357E-02	   -1.000000E+00	    1.226074E-03	    1.000000E-03	    1.000000E+03	    1.027609E-03	    4.407120E-03	    4.288714E+03	    6.810020E+05	
   -5.275969E-03	    1.074227E-02	    7.405693E-02	   -1.000000E+00	    1.240180E-03	    1.000000E-03	    1.000000E+03	    1.091726E-03	    4.451772E-03	    4.077735E+03	    6.641743E+05	
   -4.250575E-03	    1.117974E-02	    7.701373E-02	   -1.000000E+00	    1.250859E-03	    1.000000E-03	    1.000000E+03	    1.140269E-03	    4.482721E-03	    3.931285E+03	    6.520029E+05	
   -3.288589E-03	    1.149396E-02	    7.913035E-02	   -1.000000E+00	    1.258530E-03	    1.000000E-03	    1.000000E+03	    1.175135E-03	    4.503502E-03	    3.832327E+03	    6.435381E+05	
   -2.406939E-03	    1.170666E-02	    8.055899E-02	   -1.000000E+00	    1.263720E-03	    1.000000E-03	    1.000000E+03	    1.198728E-03	    4.516871E-03	    3.768053E+03	    6.379266E+05	
   -1.613344E-03	    1.183985E-02	    8.145107E-02	   -1.000000E+00	    1.266968E-03	    1.000000E-03	    1.000000E+03	    1.213491E-03	    4.524915E-03	    3.728841E+03	    6.344494E+05	
   -9.086451E-04	    1.191341E-02	    8.194177E-02	   -1.000000E+00	    1.268759E-03	    1.000000E-03	    1.000000E+03	    1.221631E-03	    4.529182E-03	    3.707488E+03	    6.325254E+05	
   -2.891269E-04	    1.194400E-02	    8.214336E-02	   -1.000000E+00	    1.269499E-03	    1.000000E-03	    1.000000E+03	    1.224997E-03	    4.530803E-03	    3.698625E+03	    6.316981E+05	
    2.891269E-04	    1.194400E-02	    8.214336E-02	   -1.000000E+00	    1.269499E-03	    1.000000E-03	    1.000000E+03	    1.224997E-03	    4.530803E-03	    3.698625E+03	    6.316981E+05	
    9.086451E-04	    1.191341E-02	    8.194177E-02	   -1.000000E+00	    1.268759E-03	    1.000000E-03	    1.000000E+03	    1.221631E-03	    4.529182E-03	    3.707488E+03	    6.325254E+05	
    1.613344E-03	    1.183985E-02	    8.145107E-02	   -1.000000E+00	    1.266968E-03	    1.000000E-03	    1.000000E+03	    1.213491E-03	    4.524915E-03	    3.728841E+03	    6.344494E+05	
    2.406939E-03	    1.170666E-02	    8.055899E-02	   -1.000000E+00	    1.263720E-03	    1.000000E-03	    1.000000E+03	    1.198728E-03	    4.516871E-03	    3.768053E+03	    6.379266E+05	
    3.288589E-03	    1.149396E-02	    7.913035E-02	   -1.000000E+00	    1.258530E-03	    1.000000E-03	    1.000000E+03	    1.175135E-03	    4.503502E-03	    3.832327E+03	    6.435381E+05	
    4.250575E-03	    1.117974E-02	    7.701373E-02	   -1.000000E+00	    1.250859E-03	    1.000000E-03	    1.000000E+03	    1.140269E-03	    4.482721E-03	    3.931285E+03	    6.520029E+05	
    5.275969E-03	    1.074227E-02	    7.405693E-02	   -1.000000E+00	    1.240180E-03	    1.000000E-03	    1.000000E+03	    1.091726E-03	    4.451772E-03	    4.077735E+03	    6.641743E+05	
    6.337080E-03	    1.016411E-02	    7.013357E-02	   -1.000000E+00	    1.226074E-03	    1.000000E-03	    1.000000E+03	    1.027609E-03	    4.407120E-03	    4.288714E+03	    6.810020E+05	
    7.395856E-03	    9.437422E-03	    6.517976E-02	   -1.000000E+00	    1.208371E-03	    1.000000E-03	    1.000000E+03	    9.471413E-04	    4.344472E-03	    4.586931E+03	    7.034339E+05	
    8.407302E-03	    8.569391E-03	    5.923327E-02	   -1.000000E+00	    1.187290E-03	    1.000000E-03	    1.000000E+03	    8.513179E-04	    4.259011E-03	    5.002844E+03	    7.322162E+05	
    9.326135E-03	    7.585587E-03	    5.246056E-02	   -1.000000E+00	    1.163528E-03	    1.000000E-03	    1.000000E+03	    7.433076E-04	    4.145938E-03	    5.577688E+03	    7.675377E+05	
    1.011527E-02	    6.529136E-03	    4.515443E-02	   -1.000000E+00	    1.138233E-03	    1.000000E-03	    1.000000E+03	    6.283327E-04	    4.001181E-03	    6.367933E+03	    8.084847E+05	
    1.075321E-02	    5.454763E-03	    3.769402E-02	   -1.000000E+00	    1.112836E-03	    1.000000E-03	    1.000000E+03	    5.128898E-04	    3.821880E-03	    7.451661E+03	    8.524089E+05	
    1.123737E-02	    4.419185E-03	    3.047801E-02	   -1.000000E+00	    1.088774E-03	    1.000000E-03	    1.000000E+03	    4.035166E-04	    3.606369E-03	    8.937352E+03	    8.946643E+05	
    1.158209E-02	    3.471175E-03	    2.385613E-02	   -1.000000E+00	    1.067230E-03	    1.000000E-03	    1.000000E+03	    3.055910E-04	    3.354206E-03	    1.097613E+04	    9.295447E+05	
    1.181256E-02	    2.644593E-03	    1.807906E-02	   -1.000000E+00	    1.048969E-03	    1.000000E-03	    1.000000E+03	    2.225857E-04	    3.067176E-03	    1.377975E+04	    9.525843E+05	
    1.195765E-02	    1.955950E-03	    1.327459E-02	   -1.000000E+00	    1.034289E-03	    1.000000E-03	    1.000000E+03	    1.558603E-04	    2.750322E-03	    1.764608E+04	    9.624288E+05	
    1.204401E-02	    1.406019E-03	    9.454486E-03	   -1.000000E+00	    1.023079E-03	    1.000000E-03	    1.000000E+03	    1.049035E-04	    2.411897E-03	    2.299158E+04	    9.605471E+05	
    1.209293E-02	    9.838410E-04	    6.541700E-03	   -1.000000E+00	    1.014933E-03	    1.000000E-03	    1.000000E+03	    6.787729E-05	    2.062826E-03	    3.039052E+04	    9.493686E+05	
    1.211955E-02	    6.714295E-04	    4.403971E-03	   -1.000000E+00	    1.009293E-03	    1.000000E-03	    1.000000E+03	    4.224271E-05	    1.715702E-03	    4.061533E+04	    9.302757E+05	
    1.213361E-02	    4.479957E-04	    2.885900E-03	   -1.000000E+00	    1.005566E-03	    1.000000E-03	    1.000000E+03	    2.530159E-05	    1.382741E-03	    5.465038E+04	    9.012916E+05	
    1.214094E-02	    2.931200E-04	    1.833182E-03	   -1.000000E+00	    1.003207E-03	    1.000000E-03	    1.000000E+03	    1.457503E-05	    1.071911E-03	    7.354432E+04	    8.518761E+05	
    1.214476E-02	    1.887422E-04	    1.106895E-03	   -1.000000E+00	    1.001768E-03	    1.000000E-03	    1.000000E+03	    8.034437E-06	    7.856490E-04	    9.778519E+04	    7.503579E+05	
    1.214679E-02	    1.200973E-04	    5.896214E-04	   -1.000000E+00	    1.000972E-03	    1.000000E-03	    1.000000E+03	    4.416560E-06	    5.863735E-04	    1.327670E+05	    5.263732E+05	
    1.214788E-02	    7.586052E-05	    1.925509E-04	   -1.000000E+00	    1.000921E-03	    1.000000E-03	    1.000000E+03	    4.185144E-06	    1.319691E-03	    3.153275E+05	    1.391803E+05	
    1.214823E-02	    6.021683E-05	    0.000000E+00	    0.000000E+00	    1.000000E-03	    1.000000E-03	    1.000000E+03	    0.000000E+00	    0.000000E+00	    0.000000E+00	    0.000000E+00	
   -1.214729E-02	    6.018900E-05	    0.000000E+00	    0.000000E+00	    1.000000E-03	    1.000000E-03	    1.000000E+03	    0.000000E+00	    0.000000E+00	    0.000000E+00	    0.000000E+00	
