Title="Fields"
Variables="X""Y""Velocity""Phi""Effective Viscosity""Dynamic Viscosity""Density""Eddy Viscosity""K""Omega""S"
Zone I=52 J=52 F=POINT
   -2.799657E-02	    1.387860E-04	    0.000000E+00	    0.000000E+00	    1.000000E-03	    1.000000E-03	    1.000000E+03	    0.000000E+00	    0.000000E+00	    0.000000E+00	    0.000000E+00	
   -2.799598E-02	    1.748425E-04	    0.000000E+00	    0.000000E+00	    1.000000E-03	    1.000000E-03	    1.000000E+03	    0.000000E+00	    0.000000E+00	    0.000000E+00	    0.000000E+00	
   -2.799407E-02	    2.768050E-04	    0.000000E+00	    0.000000E+00	    1.000000E-03	    1.000000E-03	    1.000000E+03	    0.000000E+00	    0.000000E+00	    0.000000E+00	    0.000000E+00	
   -2.799036E-02	    4.350355E-04	    0.000000E+00	    0.000000E+00	    1.000000E-03	    1.000000E-03	    1.000000E+03	    0.000000E+00	    0.000000E+00	    0.000000E+00	    0.000000E+00	
   -2.798301E-02	    6.756531E-04	    0.000000E+00	    0.000000E+00	    1.000000E-03	    1.000000E-03	    1.000000E+03	    0.000000E+00	    0.000000E+00	    0.000000E+00	    0.000000E+00	
   -2.796829E-02	    1.032727E-03	    0.000000E+00	    0.000000E+00	    1.000000E-03	    1.000000E-03	    1.000000E+03	    0.000000E+00	    0.000000E+00	    0.000000E+00	    0.000000E+00	
   -2.793898E-02	    1.547964E-03	    0.000000E+00	    0.000000E+00	    1.000000E-03	    1.000000E-03	    1.000000E+03	    0.000000E+00	    0.000000E+00	    0.000000E+00	    0.000000E+00	
   -2.788198E-02	    2.268574E-03	    0.000000E+00	    0.000000E+00	    1.000000E-03	    1.000000E-03	    1.000000E+03	    0.000000E+00	    0.000000E+00	    0.000000E+00	    0.000000E+00	
   -2.777503E-02	    3.242731E-03	    0.000000E+00	    0.000000E+00	    1.000000E-03	    1.000000E-03	    1.000000E+03	    0.000000E+00	    0.000000E+00	    0.000000E+00	    0.000000E+00	
   -2.758344E-02	    4.512287E-03	    0.000000E+00	    0.000000E+00	    1.000000E-03	    1.000000E-03	    1.000000E+03	    0.000000E+00	    0.000000E+00	    0.000000E+00	    0.000000E+00	
   -2.725815E-02	    6.103053E-03	    0.000000E+00	    0.000000E+00	    1.000000E-03	    1.000000E-03	    1.000000E+03	    0.000000E+00	    0.000000E+00	    0.000000E+00	    0.000000E+00	
   -2.673736E-02	    8.013906E-03	    0.000000E+00	    0.000000E+00	    1.000000E-03	    1.000000E-03	    1.000000E+03	    0.000000E+00	    0.000000E+00	    0.000000E+00	    0.000000E+00	
   -2.595387E-02	    1.020742E-02	    0.000000E+00	    0.000000E+00	    1.000000E-03	    1.000000E-03	    1.000000E+03	    0.000000E+00	    0.000000E+00	    0.000000E+00	    0.000000E+00	
   -2.484852E-02	    1.260592E-02	    0.000000E+00	    0.000000E+00	    1.000000E-03	    1.000000E-03	    1.000000E+03	    0.000000E+00	    0.000000E+00	    0.000000E+00	    0.000000E+00	
   -2.338694E-02	    1.509691E-02	    0.000000E+00	    0.000000E+00	    1.000000E-03	    1.000000E-03	    1.000000E+03	    0.000000E+00	    0.000000E+00	    0.000000E+00	    0.000000E+00	
   -2.157385E-02	    1.754895E-02	    0.000000E+00	    0.000000E+00	    1.000000E-03	    1.000000E-03	    1.000000E+03	    0.000000E+00	    0.000000E+00	    0.000000E+00	    0.000000E+00	
   -1.945793E-02	    1.983472E-02	    0.000000E+00	    0.000000E+00	    1.000000E-03	    1.000000E-03	    1.000000E+03	    0.000000E+00	    0.000000E+00	    0.000000E+00	    0.000000E+00	
   -1.712448E-02	    2.185337E-02	    0.000000E+00	    0.000000E+00	    1.000000E-03	    1.000000E-03	    1.000000E+03	    0.000000E+00	    0.000000E+00	    0.000000E+00	    0.000000E+00	
   -1.467832E-02	    2.354467E-02	    0.000000E+00	    0.000000E+00	    1.000000E-03	    1.000000E-03	    1.000000E+03	    0.000000E+00	    0.000000E+00	    0.000000E+00	    0.000000E+00	
   -1.222406E-02	    2.489117E-02	    0.000000E+00	    0.000000E+00	    1.000000E-03	    1.000000E-03	    1.000000E+03	    0.000000E+00	    0.000000E+00	    0.000000E+00	    0.000000E+00	
   -9.850454E-03	    2.591053E-02	    0.000000E+00	    0.000000E+00	    1.000000E-03	    1.000000E-03	    1.000000E+03	    0.000000E+00	    0.000000E+00	    0.000000E+00	    0.000000E+00	
   -7.622309E-03	    2.664298E-02	    0.000000E+00	    0.000000E+00	    1.000000E-03	    1.000000E-03	    1.000000E+03	    0.000000E+00	    0.000000E+00	    0.000000E+00	    0.000000E+00	
   -5.579413E-03	    2.713892E-02	    0.000000E+00	    0.000000E+00	    1.000000E-03	    1.000000E-03	    1.000000E+03	    0.000000E+00	    0.000000E+00	    0.000000E+00	    0.000000E+00	
   -3.740068E-03	    2.744953E-02	    0.000000E+00	    0.000000E+00	    1.000000E-03	    1.000000E-03	    1.000000E+03	    0.000000E+00	    0.000000E+00	    0.000000E+00	    0.000000E+00	
   -2.106506E-03	    2.762109E-02	    0.000000E+00	    0.000000E+00	    1.000000E-03	    1.000000E-03	    1.000000E+03	    0.000000E+00	    0.000000E+00	    0.000000E+00	    0.000000E+00	
   -6.702913E-04	    2.769242E-02	    0.000000E+00	    0.000000E+00	    1.000000E-03	    1.000000E-03	    1.000000E+03	    0.000000E+00	    0.000000E+00	    0.000000E+00	    0.000000E+00	
    6.702913E-04	    2.769242E-02	    0.000000E+00	    0.000000E+00	    1.000000E-03	    1.000000E-03	    1.000000E+03	    0.000000E+00	    0.000000E+00	    0.000000E+00	    0.000000E+00	
    2.106506E-03	    2.762109E-02	    0.000000E+00	    0.000000E+00	    1.000000E-03	    1.000000E-03	    1.000000E+03	    0.000000E+00	    0.000000E+00	    0.000000E+00	    0.000000E+00	
    3.740068E-03	    2.744953E-02	    0.000000E+00	    0.000000E+00	    1.000000E-03	    1.000000E-03	    1.000000E+03	    0.000000E+00	    0.000000E+00	    0.000000E+00	    0.000000E+00	
    5.579413E-03	    2.713892E-02	    0.000000E+00	    0.000000E+00	    1.000000E-03	    1.000000E-03	    1.000000E+03	    0.000000E+00	    0.000000E+00	    0.000000E+00	    0.000000E+00	
    7.622309E-03	    2.664298E-02	    0.000000E+00	    0.000000E+00	    1.000000E-03	    1.000000E-03	    1.000000E+03	    0.000000E+00	    0.000000E+00	    0.000000E+00	    0.000000E+00	
    9.850454E-03	    2.591053E-02	    0.000000E+00	    0.000000E+00	    1.000000E-03	    1.000000E-03	    1.000000E+03	    0.000000E+00	    0.000000E+00	    0.000000E+00	    0.000000E+00	
    1.222406E-02	    2.489117E-02	    0.000000E+00	    0.000000E+00	    1.000000E-03	    1.000000E-03	    1.000000E+03	    0.000000E+00	    0.000000E+00	    0.000000E+00	    0.000000E+00	
    1.467832E-02	    2.354467E-02	    0.000000E+00	    0.000000E+00	    1.000000E-03	    1.000000E-03	    1.000000E+03	    0.000000E+00	    0.000000E+00	    0.000000E+00	    0.000000E+00	
    1.712448E-02	    2.185337E-02	    0.000000E+00	    0.000000E+00	    1.000000E-03	    1.000000E-03	    1.000000E+03	    0.000000E+00	    0.000000E+00	    0.000000E+00	    0.000000E+00	
    1.945793E-02	    1.983472E-02	    0.000000E+00	    0.000000E+00	    1.000000E-03	    1.000000E-03	    1.000000E+03	    0.000000E+00	    0.000000E+00	    0.000000E+00	    0.000000E+00	
    2.157385E-02	    1.754895E-02	    0.000000E+00	    0.000000E+00	    1.000000E-03	    1.000000E-03	    1.000000E+03	    0.000000E+00	    0.000000E+00	    0.000000E+00	    0.000000E+00	
    2.338694E-02	    1.509691E-02	    0.000000E+00	    0.000000E+00	    1.000000E-03	    1.000000E-03	    1.000000E+03	    0.000000E+00	    0.000000E+00	    0.000000E+00	    0.000000E+00	
    2.484852E-02	    1.260592E-02	    0.000000E+00	    0.000000E+00	    1.000000E-03	    1.000000E-03	    1.000000E+03	    0.000000E+00	    0.000000E+00	    0.000000E+00	    0.000000E+00	
    2.595387E-02	    1.020742E-02	    0.000000E+00	    0.000000E+00	    1.000000E-03	    1.000000E-03	    1.000000E+03	    0.000000E+00	    0.000000E+00	    0.000000E+00	    0.000000E+00	
    2.673736E-02	    8.013906E-03	    0.000000E+00	    0.000000E+00	    1.000000E-03	    1.000000E-03	    1.000000E+03	    0.000000E+00	    0.000000E+00	    0.000000E+00	    0.000000E+00	
    2.725815E-02	    6.103053E-03	    0.000000E+00	    0.000000E+00	    1.000000E-03	    1.000000E-03	    1.000000E+03	    0.000000E+00	    0.000000E+00	    0.000000E+00	    0.000000E+00	
    2.758344E-02	    4.512287E-03	    0.000000E+00	    0.000000E+00	    1.000000E-03	    1.000000E-03	    1.000000E+03	    0.000000E+00	    0.000000E+00	    0.000000E+00	    0.000000E+00	
    2.777503E-02	    3.242731E-03	    0.000000E+00	    0.000000E+00	    1.000000E-03	    1.000000E-03	    1.000000E+03	    0.000000E+00	    0.000000E+00	    0.000000E+00	    0.000000E+00	
    2.788198E-02	    2.268574E-03	    0.000000E+00	    0.000000E+00	    1.000000E-03	    1.000000E-03	    1.000000E+03	    0.000000E+00	    0.000000E+00	    0.000000E+00	    0.000000E+00	
    2.793898E-02	    1.547964E-03	    0.000000E+00	    0.000000E+00	    1.000000E-03	    1.000000E-03	    1.000000E+03	    0.000000E+00	    0.000000E+00	    0.000000E+00	    0.000000E+00	
    2.796829E-02	    1.032727E-03	    0.000000E+00	    0.000000E+00	    1.000000E-03	    1.000000E-03	    1.000000E+03	    0.000000E+00	    0.000000E+00	    0.000000E+00	    0.000000E+00	
    2.798301E-02	    6.756531E-04	    0.000000E+00	    0.000000E+00	    1.000000E-03	    1.000000E-03	    1.000000E+03	    0.000000E+00	    0.000000E+00	    0.000000E+00	    0.000000E+00	
    2.799036E-02	    4.350355E-04	    0.000000E+00	    0.000000E+00	    1.000000E-03	    1.000000E-03	    1.000000E+03	    0.000000E+00	    0.000000E+00	    0.000000E+00	    0.000000E+00	
    2.799407E-02	    2.768050E-04	    0.000000E+00	    0.000000E+00	    1.000000E-03	    1.000000E-03	    1.000000E+03	    0.000000E+00	    0.000000E+00	    0.000000E+00	    0.000000E+00	
    2.799598E-02	    1.748425E-04	    0.000000E+00	    0.000000E+00	    1.000000E-03	    1.000000E-03	    1.000000E+03	    0.000000E+00	    0.000000E+00	    0.000000E+00	    0.000000E+00	
    2.799657E-02	    1.387860E-04	    0.000000E+00	    0.000000E+00	    1.000000E-03	    1.000000E-03	    1.000000E+03	    0.000000E+00	    0.000000E+00	    0.000000E+00	    0.000000E+00	
   -2.799563E-02	    1.387682E-04	    0.000000E+00	    0.000000E+00	    1.000000E-03	    1.000000E-03	    1.000000E+03	    0.000000E+00	    0.000000E+00	    0.000000E+00	    0.000000E+00	
   -2.799480E-02	    1.748185E-04	    4.712902E-04	   -1.000000E+00	    1.641787E-03	    1.640000E-03	    7.900000E+02	    9.930069E-06	    2.243556E-03	    1.784892E+05	    1.019690E+05	
   -2.799220E-02	    2.767602E-04	    1.088038E-03	   -1.000000E+00	    1.641935E-03	    1.640000E-03	    7.900000E+02	    1.075080E-05	    1.049231E-03	    7.710051E+04	    2.188941E+05	
   -2.798742E-02	    4.349484E-04	    1.909439E-03	   -1.000000E+00	    1.643494E-03	    1.640000E-03	    7.900000E+02	    1.941278E-05	    1.385096E-03	    5.636626E+04	    2.727202E+05	
   -2.797845E-02	    6.754786E-04	    3.056034E-03	   -1.000000E+00	    1.646172E-03	    1.640000E-03	    7.900000E+02	    3.428891E-05	    1.791591E-03	    4.127740E+04	    2.892380E+05	
   -2.796132E-02	    1.032372E-03	    4.699757E-03	   -1.000000E+00	    1.650453E-03	    1.640000E-03	    7.900000E+02	    5.807225E-05	    2.199796E-03	    2.992546E+04	    2.921852E+05	
   -2.792855E-02	    1.547238E-03	    7.044206E-03	   -1.000000E+00	    1.657057E-03	    1.640000E-03	    7.900000E+02	    9.476261E-05	    2.607492E-03	    2.173767E+04	    2.912081E+05	
   -2.786672E-02	    2.267117E-03	    1.031057E-02	   -1.000000E+00	    1.666824E-03	    1.640000E-03	    7.900000E+02	    1.490227E-04	    3.002926E-03	    1.591913E+04	    2.890389E+05	
   -2.775331E-02	    3.239886E-03	    1.471205E-02	   -1.000000E+00	    1.680622E-03	    1.640000E-03	    7.900000E+02	    2.256753E-04	    3.371275E-03	    1.180150E+04	    2.858722E+05	
   -2.755343E-02	    4.506949E-03	    2.041630E-02	   -1.000000E+00	    1.699216E-03	    1.640000E-03	    7.900000E+02	    3.289772E-04	    3.701002E-03	    8.887519E+03	    2.811779E+05	
   -2.721805E-02	    6.093495E-03	    2.749994E-02	   -1.000000E+00	    1.723099E-03	    1.640000E-03	    7.900000E+02	    4.616629E-04	    3.985688E-03	    6.820330E+03	    2.743865E+05	
   -2.668574E-02	    7.997673E-03	    3.590490E-02	   -1.000000E+00	    1.752301E-03	    1.640000E-03	    7.900000E+02	    6.238945E-04	    4.223587E-03	    5.348073E+03	    2.652649E+05	
   -2.589008E-02	    1.018136E-02	    4.540859E-02	   -1.000000E+00	    1.786232E-03	    1.640000E-03	    7.900000E+02	    8.123999E-04	    4.416569E-03	    4.294793E+03	    2.541654E+05	
   -2.477314E-02	    1.256648E-02	    5.562450E-02	   -1.000000E+00	    1.823631E-03	    1.640000E-03	    7.900000E+02	    1.020170E-03	    4.569030E-03	    3.538167E+03	    2.420015E+05	
   -2.330203E-02	    1.504066E-02	    6.604649E-02	   -1.000000E+00	    1.862660E-03	    1.640000E-03	    7.900000E+02	    1.237002E-03	    4.686543E-03	    2.993019E+03	    2.299076E+05	
   -2.148285E-02	    1.747327E-02	    7.612715E-02	   -1.000000E+00	    1.901171E-03	    1.640000E-03	    7.900000E+02	    1.450950E-03	    4.774703E-03	    2.599687E+03	    2.188228E+05	
   -1.936522E-02	    1.973833E-02	    8.537068E-02	   -1.000000E+00	    1.937083E-03	    1.640000E-03	    7.900000E+02	    1.650461E-03	    4.838837E-03	    2.316129E+03	    2.092975E+05	
   -1.703462E-02	    2.173663E-02	    9.341344E-02	   -1.000000E+00	    1.968764E-03	    1.640000E-03	    7.900000E+02	    1.826465E-03	    4.884034E-03	    2.112489E+03	    2.015212E+05	
   -1.459537E-02	    2.340939E-02	    1.000655E-01	   -1.000000E+00	    1.995255E-03	    1.640000E-03	    7.900000E+02	    1.973641E-03	    4.914967E-03	    1.967341E+03	    1.954374E+05	
   -1.215105E-02	    2.474015E-02	    1.053049E-01	   -1.000000E+00	    2.016299E-03	    1.640000E-03	    7.900000E+02	    2.090551E-03	    4.935610E-03	    1.865122E+03	    1.908552E+05	
   -9.789230E-03	    2.574704E-02	    1.092374E-01	   -1.000000E+00	    2.032196E-03	    1.640000E-03	    7.900000E+02	    2.178866E-03	    4.949079E-03	    1.794407E+03	    1.875292E+05	
   -7.573603E-03	    2.647022E-02	    1.120443E-01	   -1.000000E+00	    2.043596E-03	    1.640000E-03	    7.900000E+02	    2.242202E-03	    4.957651E-03	    1.746740E+03	    1.852097E+05	
   -5.543101E-03	    2.695974E-02	    1.139350E-01	   -1.000000E+00	    2.051303E-03	    1.640000E-03	    7.900000E+02	    2.285015E-03	    4.962913E-03	    1.715832E+03	    1.836687E+05	
   -3.715451E-03	    2.726626E-02	    1.151140E-01	   -1.000000E+00	    2.056121E-03	    1.640000E-03	    7.900000E+02	    2.311786E-03	    4.965941E-03	    1.696997E+03	    1.827122E+05	
   -2.092555E-03	    2.743555E-02	    1.157619E-01	   -1.000000E+00	    2.058777E-03	    1.640000E-03	    7.900000E+02	    2.326541E-03	    4.967452E-03	    1.686748E+03	    1.821820E+05	
   -6.658406E-04	    2.750593E-02	    1.160278E-01	   -1.000000E+00	    2.059875E-03	    1.640000E-03	    7.900000E+02	    2.332640E-03	    4.967925E-03	    1.682498E+03	    1.819533E+05	
    6.658406E-04	    2.750593E-02	    1.160278E-01	   -1.000000E+00	    2.059875E-03	    1.640000E-03	    7.900000E+02	    2.332640E-03	    4.967925E-03	    1.682498E+03	    1.819533E+05	
    2.092555E-03	    2.743555E-02	    1.157619E-01	   -1.000000E+00	    2.058777E-03	    1.640000E-03	    7.900000E+02	    2.326541E-03	    4.967452E-03	    1.686748E+03	    1.821820E+05	
    3.715451E-03	    2.726626E-02	    1.151140E-01	   -1.000000E+00	    2.056121E-03	    1.640000E-03	    7.900000E+02	    2.311786E-03	    4.965941E-03	    1.696997E+03	    1.827122E+05	
    5.543101E-03	    2.695974E-02	    1.139350E-01	   -1.000000E+00	    2.051303E-03	    1.640000E-03	    7.900000E+02	    2.285015E-03	    4.962913E-03	    1.715832E+03	    1.836687E+05	
    7.573603E-03	    2.647022E-02	    1.120443E-01	   -1.000000E+00	    2.043596E-03	    1.640000E-03	    7.900000E+02	    2.242202E-03	    4.957651E-03	    1.746740E+03	    1.852097E+05	
    9.789230E-03	    2.574704E-02	    1.092374E-01	   -1.000000E+00	    2.032196E-03	    1.640000E-03	    7.900000E+02	    2.178866E-03	    4.949079E-03	    1.794407E+03	    1.875292E+05	
    1.215105E-02	    2.474015E-02	    1.053049E-01	   -1.000000E+00	    2.016299E-03	    1.640000E-03	    7.900000E+02	    2.090551E-03	    4.935610E-03	    1.865122E+03	    1.908552E+05	
    1.459537E-02	    2.340939E-02	    1.000655E-01	   -1.000000E+00	    1.995255E-03	    1.640000E-03	    7.900000E+02	    1.973641E-03	    4.914967E-03	    1.967341E+03	    1.954374E+05	
    1.703462E-02	    2.173663E-02	    9.341344E-02	   -1.000000E+00	    1.968764E-03	    1.640000E-03	    7.900000E+02	    1.826465E-03	    4.884034E-03	    2.112489E+03	    2.015212E+05	
    1.936522E-02	    1.973833E-02	    8.537068E-02	   -1.000000E+00	    1.937083E-03	    1.640000E-03	    7.900000E+02	    1.650461E-03	    4.838837E-03	    2.316129E+03	    2.092975E+05	
    2.148285E-02	    1.747327E-02	    7.612715E-02	   -1.000000E+00	    1.901171E-03	    1.640000E-03	    7.900000E+02	    1.450950E-03	    4.774703E-03	    2.599687E+03	    2.188228E+05	
    2.330203E-02	    1.504066E-02	    6.604649E-02	   -1.000000E+00	    1.862660E-03	    1.640000E-03	    7.900000E+02	    1.237002E-03	    4.686543E-03	    2.993019E+03	    2.299076E+05	
    2.477314E-02	    1.256648E-02	    5.562450E-02	   -1.000000E+00	    1.823631E-03	    1.640000E-03	    7.900000E+02	    1.020170E-03	    4.569030E-03	    3.538167E+03	    2.420015E+05	
    2.589008E-02	    1.018136E-02	    4.540859E-02	   -1.000000E+00	    1.786232E-03	    1.640000E-03	    7.900000E+02	    8.123999E-04	    4.416569E-03	    4.294793E+03	    2.541654E+05	
    2.668574E-02	    7.997673E-03	    3.590490E-02	   -1.000000E+00	    1.752301E-03	    1.640000E-03	    7.900000E+02	    6.238945E-04	    4.223587E-03	    5.348073E+03	    2.652649E+05	
    2.721805E-02	    6.093495E-03	    2.749994E-02	   -1.000000E+00	    1.723099E-03	    1.640000E-03	    7.900000E+02	    4.616629E-04	    3.985688E-03	    6.820330E+03	    2.743865E+05	
    2.755343E-02	    4.506949E-03	    2.041630E-02	   -1.000000E+00	    1.699216E-03	    1.640000E-03	    7.900000E+02	    3.289772E-04	    3.701002E-03	    8.887519E+03	    2.811779E+05	
    2.775331E-02	    3.239886E-03	    1.471205E-02	   -1.000000E+00	    1.680622E-03	    1.640000E-03	    7.900000E+02	    2.256753E-04	    3.371275E-03	    1.180150E+04	    2.858722E+05	
    2.786672E-02	    2.267117E-03	    1.031057E-02	   -1.000000E+00	    1.666824E-03	    1.640000E-03	    7.900000E+02	    1.490227E-04	    3.002926E-03	    1.591913E+04	    2.890389E+05	
    2.792855E-02	    1.547238E-03	    7.044206E-03	   -1.000000E+00	    1.657057E-03	    1.640000E-03	    7.900000E+02	    9.476261E-05	    2.607492E-03	    2.173767E+04	    2.912081E+05	
    2.796132E-02	    1.032372E-03	    4.699757E-03	   -1.000000E+00	    1.650453E-03	    1.640000E-03	    7.900000E+02	    5.807225E-05	    2.199796E-03	    2.992546E+04	    2.921852E+05	
    2.797845E-02	    6.754786E-04	    3.056034E-03	   -1.000000E+00	    1.646172E-03	    1.640000E-03	    7.900000E+02	    3.428891E-05	    1.791591E-03	    4.127740E+04	    2.892380E+05	
    2.798742E-02	    4.349484E-04	    1.909439E-03	   -1.000000E+00	    1.643494E-03	    1.640000E-03	    7.900000E+02	    1.941278E-05	    1.385096E-03	    5.636626E+04	    2.727202E+05	
    2.799220E-02	    2.767602E-04	    1.088038E-03	   -1.000000E+00	    1.641935E-03	    1.640000E-03	    7.900000E+02	    1.075080E-05	    1.049231E-03	    7.710051E+04	    2.188941E+05	
    2.799480E-02	    1.748185E-04	    4.712902E-04	   -1.000000E+00	    1.641787E-03	    1.640000E-03	    7.900000E+02	    9.930069E-06	    2.243556E-03	    1.784892E+05	    1.019690E+05	
    2.799563E-02	    1.387682E-04	    0.000000E+00	    0.000000E+00	    1.000000E-03	    1.000000E-03	    1.000000E+03	    0.000000E+00	    0.000000E+00	    0.000000E+00	    0.000000E+00	
   -2.799346E-02	    1.387025E-04	    0.000000E+00	    0.000000E+00	    1.000000E-03	    1.000000E-03	    1.000000E+03	    0.000000E+00	    0.000000E+00	    0.000000E+00	    0.000000E+00	
