Title="Fields"
Variables="X""Y""Velocity""Phi""Effective Viscosity""Dynamic Viscosity""Density""Eddy Viscosity""K""Epsilon""S"
Zone I=52 J=52 F=POINT
   -2.799697E-02	    1.387893E-04	    0.000000E+00	    0.000000E+00	    1.000000E-03	    1.000000E-03	    1.000000E+03	    0.000000E+00	    0.000000E+00	    0.000000E+00	    0.000000E+00	
   -2.799642E-02	    1.748469E-04	    0.000000E+00	    0.000000E+00	    1.000000E-03	    1.000000E-03	    1.000000E+03	    0.000000E+00	    0.000000E+00	    0.000000E+00	    0.000000E+00	
   -2.799460E-02	    2.768129E-04	    0.000000E+00	    0.000000E+00	    1.000000E-03	    1.000000E-03	    1.000000E+03	    0.000000E+00	    0.000000E+00	    0.000000E+00	    0.000000E+00	
   -2.799104E-02	    4.350503E-04	    0.000000E+00	    0.000000E+00	    1.000000E-03	    1.000000E-03	    1.000000E+03	    0.000000E+00	    0.000000E+00	    0.000000E+00	    0.000000E+00	
   -2.798392E-02	    6.756814E-04	    0.000000E+00	    0.000000E+00	    1.000000E-03	    1.000000E-03	    1.000000E+03	    0.000000E+00	    0.000000E+00	    0.000000E+00	    0.000000E+00	
   -2.796953E-02	    1.032783E-03	    0.000000E+00	    0.000000E+00	    1.000000E-03	    1.000000E-03	    1.000000E+03	    0.000000E+00	    0.000000E+00	    0.000000E+00	    0.000000E+00	
   -2.794071E-02	    1.548074E-03	    0.000000E+00	    0.000000E+00	    1.000000E-03	    1.000000E-03	    1.000000E+03	    0.000000E+00	    0.000000E+00	    0.000000E+00	    0.000000E+00	
   -2.788437E-02	    2.268791E-03	    0.000000E+00	    0.000000E+00	    1.000000E-03	    1.000000E-03	    1.000000E+03	    0.000000E+00	    0.000000E+00	    0.000000E+00	    0.000000E+00	
   -2.777833E-02	    3.243147E-03	    0.000000E+00	    0.000000E+00	    1.000000E-03	    1.000000E-03	    1.000000E+03	    0.000000E+00	    0.000000E+00	    0.000000E+00	    0.000000E+00	
   -2.758789E-02	    4.513059E-03	    0.000000E+00	    0.000000E+00	    1.000000E-03	    1.000000E-03	    1.000000E+03	    0.000000E+00	    0.000000E+00	    0.000000E+00	    0.000000E+00	
   -2.726401E-02	    6.104423E-03	    0.000000E+00	    0.000000E+00	    1.000000E-03	    1.000000E-03	    1.000000E+03	    0.000000E+00	    0.000000E+00	    0.000000E+00	    0.000000E+00	
   -2.674483E-02	    8.016221E-03	    0.000000E+00	    0.000000E+00	    1.000000E-03	    1.000000E-03	    1.000000E+03	    0.000000E+00	    0.000000E+00	    0.000000E+00	    0.000000E+00	
   -2.596304E-02	    1.021112E-02	    0.000000E+00	    0.000000E+00	    1.000000E-03	    1.000000E-03	    1.000000E+03	    0.000000E+00	    0.000000E+00	    0.000000E+00	    0.000000E+00	
   -2.485929E-02	    1.261151E-02	    0.000000E+00	    0.000000E+00	    1.000000E-03	    1.000000E-03	    1.000000E+03	    0.000000E+00	    0.000000E+00	    0.000000E+00	    0.000000E+00	
   -2.339905E-02	    1.510487E-02	    0.000000E+00	    0.000000E+00	    1.000000E-03	    1.000000E-03	    1.000000E+03	    0.000000E+00	    0.000000E+00	    0.000000E+00	    0.000000E+00	
   -2.158679E-02	    1.755965E-02	    0.000000E+00	    0.000000E+00	    1.000000E-03	    1.000000E-03	    1.000000E+03	    0.000000E+00	    0.000000E+00	    0.000000E+00	    0.000000E+00	
   -1.947111E-02	    1.984834E-02	    0.000000E+00	    0.000000E+00	    1.000000E-03	    1.000000E-03	    1.000000E+03	    0.000000E+00	    0.000000E+00	    0.000000E+00	    0.000000E+00	
   -1.713724E-02	    2.186987E-02	    0.000000E+00	    0.000000E+00	    1.000000E-03	    1.000000E-03	    1.000000E+03	    0.000000E+00	    0.000000E+00	    0.000000E+00	    0.000000E+00	
   -1.469010E-02	    2.356378E-02	    0.000000E+00	    0.000000E+00	    1.000000E-03	    1.000000E-03	    1.000000E+03	    0.000000E+00	    0.000000E+00	    0.000000E+00	    0.000000E+00	
   -1.223442E-02	    2.491250E-02	    0.000000E+00	    0.000000E+00	    1.000000E-03	    1.000000E-03	    1.000000E+03	    0.000000E+00	    0.000000E+00	    0.000000E+00	    0.000000E+00	
   -9.859140E-03	    2.593363E-02	    0.000000E+00	    0.000000E+00	    1.000000E-03	    1.000000E-03	    1.000000E+03	    0.000000E+00	    0.000000E+00	    0.000000E+00	    0.000000E+00	
   -7.629219E-03	    2.666739E-02	    0.000000E+00	    0.000000E+00	    1.000000E-03	    1.000000E-03	    1.000000E+03	    0.000000E+00	    0.000000E+00	    0.000000E+00	    0.000000E+00	
   -5.584564E-03	    2.716424E-02	    0.000000E+00	    0.000000E+00	    1.000000E-03	    1.000000E-03	    1.000000E+03	    0.000000E+00	    0.000000E+00	    0.000000E+00	    0.000000E+00	
   -3.743560E-03	    2.747543E-02	    0.000000E+00	    0.000000E+00	    1.000000E-03	    1.000000E-03	    1.000000E+03	    0.000000E+00	    0.000000E+00	    0.000000E+00	    0.000000E+00	
   -2.108485E-03	    2.764731E-02	    0.000000E+00	    0.000000E+00	    1.000000E-03	    1.000000E-03	    1.000000E+03	    0.000000E+00	    0.000000E+00	    0.000000E+00	    0.000000E+00	
   -6.709226E-04	    2.771877E-02	    0.000000E+00	    0.000000E+00	    1.000000E-03	    1.000000E-03	    1.000000E+03	    0.000000E+00	    0.000000E+00	    0.000000E+00	    0.000000E+00	
    6.709226E-04	    2.771877E-02	    0.000000E+00	    0.000000E+00	    1.000000E-03	    1.000000E-03	    1.000000E+03	    0.000000E+00	    0.000000E+00	    0.000000E+00	    0.000000E+00	
    2.108485E-03	    2.764731E-02	    0.000000E+00	    0.000000E+00	    1.000000E-03	    1.000000E-03	    1.000000E+03	    0.000000E+00	    0.000000E+00	    0.000000E+00	    0.000000E+00	
    3.743560E-03	    2.747543E-02	    0.000000E+00	    0.000000E+00	    1.000000E-03	    1.000000E-03	    1.000000E+03	    0.000000E+00	    0.000000E+00	    0.000000E+00	    0.000000E+00	
    5.584564E-03	    2.716424E-02	    0.000000E+00	    0.000000E+00	    1.000000E-03	    1.000000E-03	    1.000000E+03	    0.000000E+00	    0.000000E+00	    0.000000E+00	    0.000000E+00	
    7.629219E-03	    2.666739E-02	    0.000000E+00	    0.000000E+00	    1.000000E-03	    1.000000E-03	    1.000000E+03	    0.000000E+00	    0.000000E+00	    0.000000E+00	    0.000000E+00	
    9.859140E-03	    2.593363E-02	    0.000000E+00	    0.000000E+00	    1.000000E-03	    1.000000E-03	    1.000000E+03	    0.000000E+00	    0.000000E+00	    0.000000E+00	    0.000000E+00	
    1.223442E-02	    2.491250E-02	    0.000000E+00	    0.000000E+00	    1.000000E-03	    1.000000E-03	    1.000000E+03	    0.000000E+00	    0.000000E+00	    0.000000E+00	    0.000000E+00	
    1.469010E-02	    2.356378E-02	    0.000000E+00	    0.000000E+00	    1.000000E-03	    1.000000E-03	    1.000000E+03	    0.000000E+00	    0.000000E+00	    0.000000E+00	    0.000000E+00	
    1.713724E-02	    2.186987E-02	    0.000000E+00	    0.000000E+00	    1.000000E-03	    1.000000E-03	    1.000000E+03	    0.000000E+00	    0.000000E+00	    0.000000E+00	    0.000000E+00	
    1.947111E-02	    1.984834E-02	    0.000000E+00	    0.000000E+00	    1.000000E-03	    1.000000E-03	    1.000000E+03	    0.000000E+00	    0.000000E+00	    0.000000E+00	    0.000000E+00	
    2.158679E-02	    1.755965E-02	    0.000000E+00	    0.000000E+00	    1.000000E-03	    1.000000E-03	    1.000000E+03	    0.000000E+00	    0.000000E+00	    0.000000E+00	    0.000000E+00	
    2.339905E-02	    1.510487E-02	    0.000000E+00	    0.000000E+00	    1.000000E-03	    1.000000E-03	    1.000000E+03	    0.000000E+00	    0.000000E+00	    0.000000E+00	    0.000000E+00	
    2.485929E-02	    1.261151E-02	    0.000000E+00	    0.000000E+00	    1.000000E-03	    1.000000E-03	    1.000000E+03	    0.000000E+00	    0.000000E+00	    0.000000E+00	    0.000000E+00	
    2.596304E-02	    1.021112E-02	    0.000000E+00	    0.000000E+00	    1.000000E-03	    1.000000E-03	    1.000000E+03	    0.000000E+00	    0.000000E+00	    0.000000E+00	    0.000000E+00	
    2.674483E-02	    8.016221E-03	    0.000000E+00	    0.000000E+00	    1.000000E-03	    1.000000E-03	    1.000000E+03	    0.000000E+00	    0.000000E+00	    0.000000E+00	    0.000000E+00	
    2.726401E-02	    6.104423E-03	    0.000000E+00	    0.000000E+00	    1.000000E-03	    1.000000E-03	    1.000000E+03	    0.000000E+00	    0.000000E+00	    0.000000E+00	    0.000000E+00	
    2.758789E-02	    4.513059E-03	    0.000000E+00	    0.000000E+00	    1.000000E-03	    1.000000E-03	    1.000000E+03	    0.000000E+00	    0.000000E+00	    0.000000E+00	    0.000000E+00	
    2.777833E-02	    3.243147E-03	    0.000000E+00	    0.000000E+00	    1.000000E-03	    1.000000E-03	    1.000000E+03	    0.000000E+00	    0.000000E+00	    0.000000E+00	    0.000000E+00	
    2.788437E-02	    2.268791E-03	    0.000000E+00	    0.000000E+00	    1.000000E-03	    1.000000E-03	    1.000000E+03	    0.000000E+00	    0.000000E+00	    0.000000E+00	    0.000000E+00	
    2.794071E-02	    1.548074E-03	    0.000000E+00	    0.000000E+00	    1.000000E-03	    1.000000E-03	    1.000000E+03	    0.000000E+00	    0.000000E+00	    0.000000E+00	    0.000000E+00	
    2.796953E-02	    1.032783E-03	    0.000000E+00	    0.000000E+00	    1.000000E-03	    1.000000E-03	    1.000000E+03	    0.000000E+00	    0.000000E+00	    0.000000E+00	    0.000000E+00	
    2.798392E-02	    6.756814E-04	    0.000000E+00	    0.000000E+00	    1.000000E-03	    1.000000E-03	    1.000000E+03	    0.000000E+00	    0.000000E+00	    0.000000E+00	    0.000000E+00	
    2.799104E-02	    4.350503E-04	    0.000000E+00	    0.000000E+00	    1.000000E-03	    1.000000E-03	    1.000000E+03	    0.000000E+00	    0.000000E+00	    0.000000E+00	    0.000000E+00	
    2.799460E-02	    2.768129E-04	    0.000000E+00	    0.000000E+00	    1.000000E-03	    1.000000E-03	    1.000000E+03	    0.000000E+00	    0.000000E+00	    0.000000E+00	    0.000000E+00	
    2.799642E-02	    1.748469E-04	    0.000000E+00	    0.000000E+00	    1.000000E-03	    1.000000E-03	    1.000000E+03	    0.000000E+00	    0.000000E+00	    0.000000E+00	    0.000000E+00	
    2.799697E-02	    1.387893E-04	    0.000000E+00	    0.000000E+00	    1.000000E-03	    1.000000E-03	    1.000000E+03	    0.000000E+00	    0.000000E+00	    0.000000E+00	    0.000000E+00	
   -2.799603E-02	    1.387724E-04	    0.000000E+00	    0.000000E+00	    1.000000E-03	    1.000000E-03	    1.000000E+03	    0.000000E+00	    0.000000E+00	    0.000000E+00	    0.000000E+00	
   -2.799523E-02	    1.748240E-04	    4.622608E-04	   -1.000000E+00	    1.641836E-03	    1.640000E-03	    7.900000E+02	    1.020080E-05	    2.364633E-03	    3.897290E+01	    9.794747E+04	
   -2.799273E-02	    2.767698E-04	    1.085285E-03	   -1.000000E+00	    1.642039E-03	    1.640000E-03	    7.900000E+02	    1.132659E-05	    1.163180E-03	    8.493063E+00	    2.175091E+05	
   -2.798810E-02	    4.349659E-04	    1.955813E-03	   -1.000000E+00	    1.643758E-03	    1.640000E-03	    7.900000E+02	    2.087985E-05	    1.600346E-03	    8.721075E+00	    2.857488E+05	
   -2.797935E-02	    6.755112E-04	    3.176315E-03	   -1.000000E+00	    1.646718E-03	    1.640000E-03	    7.900000E+02	    3.732300E-05	    2.119984E-03	    8.561661E+00	    3.120032E+05	
   -2.796255E-02	    1.032434E-03	    4.877166E-03	   -1.000000E+00	    1.651374E-03	    1.640000E-03	    7.900000E+02	    6.319053E-05	    2.601276E-03	    7.613609E+00	    3.141336E+05	
   -2.793026E-02	    1.547358E-03	    7.237592E-03	   -1.000000E+00	    1.658448E-03	    1.640000E-03	    7.900000E+02	    1.024888E-04	    3.045957E-03	    6.436369E+00	    3.067499E+05	
   -2.786910E-02	    2.267347E-03	    1.045708E-02	   -1.000000E+00	    1.668773E-03	    1.640000E-03	    7.900000E+02	    1.598474E-04	    3.450265E-03	    5.295037E+00	    2.963335E+05	
   -2.775658E-02	    3.240320E-03	    1.472595E-02	   -1.000000E+00	    1.683189E-03	    1.640000E-03	    7.900000E+02	    2.399383E-04	    3.805383E-03	    4.291082E+00	    2.847763E+05	
   -2.755785E-02	    4.507744E-03	    2.019107E-02	   -1.000000E+00	    1.702414E-03	    1.640000E-03	    7.900000E+02	    3.467463E-04	    4.105322E-03	    3.455829E+00	    2.721901E+05	
   -2.722387E-02	    6.094895E-03	    2.691760E-02	   -1.000000E+00	    1.726897E-03	    1.640000E-03	    7.900000E+02	    4.827592E-04	    4.351151E-03	    2.788351E+00	    2.584250E+05	
   -2.669314E-02	    8.000020E-03	    3.485300E-02	   -1.000000E+00	    1.756673E-03	    1.640000E-03	    7.900000E+02	    6.481839E-04	    4.550820E-03	    2.271698E+00	    2.438177E+05	
   -2.589916E-02	    1.018509E-02	    4.379891E-02	   -1.000000E+00	    1.791208E-03	    1.640000E-03	    7.900000E+02	    8.400420E-04	    4.713219E-03	    1.880199E+00	    2.291660E+05	
   -2.478380E-02	    1.257210E-02	    5.340829E-02	   -1.000000E+00	    1.829277E-03	    1.640000E-03	    7.900000E+02	    1.051541E-03	    4.844308E-03	    1.586744E+00	    2.153471E+05	
   -2.331399E-02	    1.504862E-02	    6.321891E-02	   -1.000000E+00	    1.869037E-03	    1.640000E-03	    7.900000E+02	    1.272430E-03	    4.947753E-03	    1.367892E+00	    2.030144E+05	
   -2.149563E-02	    1.748394E-02	    7.272237E-02	   -1.000000E+00	    1.908297E-03	    1.640000E-03	    7.900000E+02	    1.490536E-03	    5.026708E-03	    1.205298E+00	    1.925092E+05	
   -1.937821E-02	    1.975189E-02	    8.145231E-02	   -1.000000E+00	    1.944928E-03	    1.640000E-03	    7.900000E+02	    1.694046E-03	    5.084768E-03	    1.085143E+00	    1.839059E+05	
   -1.704720E-02	    2.175302E-02	    8.906252E-02	   -1.000000E+00	    1.977261E-03	    1.640000E-03	    7.900000E+02	    1.873673E-03	    5.125964E-03	    9.970731E-01	    1.770982E+05	
   -1.460697E-02	    2.342835E-02	    9.536818E-02	   -1.000000E+00	    2.004312E-03	    1.640000E-03	    7.900000E+02	    2.023956E-03	    5.154298E-03	    9.332704E-01	    1.718791E+05	
   -1.216124E-02	    2.476130E-02	    1.003427E-01	   -1.000000E+00	    2.025811E-03	    1.640000E-03	    7.900000E+02	    2.143392E-03	    5.173284E-03	    8.877702E-01	    1.679995E+05	
   -9.797771E-03	    2.576991E-02	    1.040814E-01	   -1.000000E+00	    2.042057E-03	    1.640000E-03	    7.900000E+02	    2.233652E-03	    5.185713E-03	    8.559948E-01	    1.652076E+05	
   -7.580395E-03	    2.649438E-02	    1.067527E-01	   -1.000000E+00	    2.053713E-03	    1.640000E-03	    7.900000E+02	    2.298404E-03	    5.193645E-03	    8.344259E-01	    1.632712E+05	
   -5.548164E-03	    2.698479E-02	    1.085535E-01	   -1.000000E+00	    2.061593E-03	    1.640000E-03	    7.900000E+02	    2.342186E-03	    5.198524E-03	    8.203673E-01	    1.619891E+05	
   -3.718882E-03	    2.729188E-02	    1.096770E-01	   -1.000000E+00	    2.066522E-03	    1.640000E-03	    7.900000E+02	    2.369569E-03	    5.201333E-03	    8.117636E-01	    1.611948E+05	
   -2.094499E-03	    2.746148E-02	    1.102946E-01	   -1.000000E+00	    2.069240E-03	    1.640000E-03	    7.900000E+02	    2.384665E-03	    5.202735E-03	    8.070598E-01	    1.607547E+05	
   -6.664609E-04	    2.753199E-02	    1.105482E-01	   -1.000000E+00	    2.070364E-03	    1.640000E-03	    7.900000E+02	    2.390909E-03	    5.203176E-03	    8.050884E-01	    1.605644E+05	
    6.664609E-04	    2.753199E-02	    1.105482E-01	   -1.000000E+00	    2.070364E-03	    1.640000E-03	    7.900000E+02	    2.390909E-03	    5.203176E-03	    8.050884E-01	    1.605644E+05	
    2.094499E-03	    2.746148E-02	    1.102946E-01	   -1.000000E+00	    2.069240E-03	    1.640000E-03	    7.900000E+02	    2.384665E-03	    5.202735E-03	    8.070598E-01	    1.607547E+05	
    3.718882E-03	    2.729188E-02	    1.096770E-01	   -1.000000E+00	    2.066522E-03	    1.640000E-03	    7.900000E+02	    2.369569E-03	    5.201333E-03	    8.117636E-01	    1.611948E+05	
    5.548164E-03	    2.698479E-02	    1.085535E-01	   -1.000000E+00	    2.061593E-03	    1.640000E-03	    7.900000E+02	    2.342186E-03	    5.198524E-03	    8.203673E-01	    1.619891E+05	
    7.580395E-03	    2.649438E-02	    1.067527E-01	   -1.000000E+00	    2.053713E-03	    1.640000E-03	    7.900000E+02	    2.298404E-03	    5.193645E-03	    8.344259E-01	    1.632712E+05	
    9.797771E-03	    2.576991E-02	    1.040814E-01	   -1.000000E+00	    2.042057E-03	    1.640000E-03	    7.900000E+02	    2.233652E-03	    5.185713E-03	    8.559948E-01	    1.652076E+05	
    1.216124E-02	    2.476130E-02	    1.003427E-01	   -1.000000E+00	    2.025811E-03	    1.640000E-03	    7.900000E+02	    2.143392E-03	    5.173284E-03	    8.877702E-01	    1.679995E+05	
    1.460697E-02	    2.342835E-02	    9.536818E-02	   -1.000000E+00	    2.004312E-03	    1.640000E-03	    7.900000E+02	    2.023956E-03	    5.154298E-03	    9.332704E-01	    1.718791E+05	
    1.704720E-02	    2.175302E-02	    8.906252E-02	   -1.000000E+00	    1.977261E-03	    1.640000E-03	    7.900000E+02	    1.873673E-03	    5.125964E-03	    9.970731E-01	    1.770982E+05	
    1.937821E-02	    1.975189E-02	    8.145231E-02	   -1.000000E+00	    1.944928E-03	    1.640000E-03	    7.900000E+02	    1.694046E-03	    5.084768E-03	    1.085143E+00	    1.839059E+05	
    2.149563E-02	    1.748394E-02	    7.272237E-02	   -1.000000E+00	    1.908297E-03	    1.640000E-03	    7.900000E+02	    1.490536E-03	    5.026708E-03	    1.205298E+00	    1.925092E+05	
    2.331399E-02	    1.504862E-02	    6.321891E-02	   -1.000000E+00	    1.869037E-03	    1.640000E-03	    7.900000E+02	    1.272430E-03	    4.947753E-03	    1.367892E+00	    2.030144E+05	
    2.478380E-02	    1.257210E-02	    5.340829E-02	   -1.000000E+00	    1.829277E-03	    1.640000E-03	    7.900000E+02	    1.051541E-03	    4.844308E-03	    1.586744E+00	    2.153471E+05	
    2.589916E-02	    1.018509E-02	    4.379891E-02	   -1.000000E+00	    1.791208E-03	    1.640000E-03	    7.900000E+02	    8.400420E-04	    4.713219E-03	    1.880199E+00	    2.291660E+05	
    2.669314E-02	    8.000020E-03	    3.485300E-02	   -1.000000E+00	    1.756673E-03	    1.640000E-03	    7.900000E+02	    6.481839E-04	    4.550820E-03	    2.271698E+00	    2.438177E+05	
    2.722387E-02	    6.094895E-03	    2.691760E-02	   -1.000000E+00	    1.726897E-03	    1.640000E-03	    7.900000E+02	    4.827592E-04	    4.351151E-03	    2.788351E+00	    2.584250E+05	
    2.755785E-02	    4.507744E-03	    2.019107E-02	   -1.000000E+00	    1.702414E-03	    1.640000E-03	    7.900000E+02	    3.467463E-04	    4.105322E-03	    3.455829E+00	    2.721901E+05	
    2.775658E-02	    3.240320E-03	    1.472595E-02	   -1.000000E+00	    1.683189E-03	    1.640000E-03	    7.900000E+02	    2.399383E-04	    3.805383E-03	    4.291082E+00	    2.847763E+05	
    2.786910E-02	    2.267347E-03	    1.045708E-02	   -1.000000E+00	    1.668773E-03	    1.640000E-03	    7.900000E+02	    1.598474E-04	    3.450265E-03	    5.295037E+00	    2.963335E+05	
    2.793026E-02	    1.547358E-03	    7.237592E-03	   -1.000000E+00	    1.658448E-03	    1.640000E-03	    7.900000E+02	    1.024888E-04	    3.045957E-03	    6.436369E+00	    3.067499E+05	
    2.796255E-02	    1.032434E-03	    4.877166E-03	   -1.000000E+00	    1.651374E-03	    1.640000E-03	    7.900000E+02	    6.319053E-05	    2.601276E-03	    7.613609E+00	    3.141336E+05	
    2.797935E-02	    6.755112E-04	    3.176315E-03	   -1.000000E+00	    1.646718E-03	    1.640000E-03	    7.900000E+02	    3.732300E-05	    2.119984E-03	    8.561661E+00	    3.120032E+05	
    2.798810E-02	    4.349659E-04	    1.955813E-03	   -1.000000E+00	    1.643758E-03	    1.640000E-03	    7.900000E+02	    2.087985E-05	    1.600346E-03	    8.721075E+00	    2.857488E+05	
    2.799273E-02	    2.767698E-04	    1.085285E-03	   -1.000000E+00	    1.642039E-03	    1.640000E-03	    7.900000E+02	    1.132659E-05	    1.163180E-03	    8.493063E+00	    2.175091E+05	
    2.799523E-02	    1.748240E-04	    4.622608E-04	   -1.000000E+00	    1.641836E-03	    1.640000E-03	    7.900000E+02	    1.020080E-05	    2.364633E-03	    3.897290E+01	    9.794747E+04	
    2.799603E-02	    1.387724E-04	    0.000000E+00	    0.000000E+00	    1.000000E-03	    1.000000E-03	    1.000000E+03	    0.000000E+00	    0.000000E+00	    0.000000E+00	    0.000000E+00	
   -2.799386E-02	    1.387087E-04	    0.000000E+00	    0.000000E+00	    1.000000E-03	    1.000000E-03	    1.000000E+03	    0.000000E+00	    0.000000E+00	    0.000000E+00	    0.000000E+00	
