Title="Fields"
Variables="X""Y""Velocity""Phi""Effective Viscosity""Dynamic Viscosity""Density""Eddy Viscosity""K""Omega""S"
Zone I=52 J=52 F=POINT
   -1.255086E-02	    6.153651E-05	    0.000000E+00	   -1.000000E+00	    1.200000E-02	    1.200000E-02	    8.750000E+02	    0.000000E+00	    0.000000E+00	    0.000000E+00	    0.000000E+00	
   -1.254838E-02	    7.750994E-05	    0.000000E+00	   -1.000000E+00	    1.200000E-02	    1.200000E-02	    8.750000E+02	    0.000000E+00	    0.000000E+00	    0.000000E+00	    0.000000E+00	
   -1.254126E-02	    1.226500E-04	    0.000000E+00	   -1.000000E+00	    1.200000E-02	    1.200000E-02	    8.750000E+02	    0.000000E+00	    0.000000E+00	    0.000000E+00	    0.000000E+00	
   -1.252989E-02	    1.926114E-04	    0.000000E+00	   -1.000000E+00	    1.200000E-02	    1.200000E-02	    8.750000E+02	    0.000000E+00	    0.000000E+00	    0.000000E+00	    0.000000E+00	
   -1.251187E-02	    2.987927E-04	    0.000000E+00	   -1.000000E+00	    1.200000E-02	    1.200000E-02	    8.750000E+02	    0.000000E+00	    0.000000E+00	    0.000000E+00	    0.000000E+00	
   -1.248351E-02	    4.559055E-04	    0.000000E+00	   -1.000000E+00	    1.200000E-02	    1.200000E-02	    8.750000E+02	    0.000000E+00	    0.000000E+00	    0.000000E+00	    0.000000E+00	
   -1.243916E-02	    6.816474E-04	    0.000000E+00	   -1.000000E+00	    1.200000E-02	    1.200000E-02	    8.750000E+02	    0.000000E+00	    0.000000E+00	    0.000000E+00	    0.000000E+00	
   -1.237041E-02	    9.954785E-04	    0.000000E+00	   -1.000000E+00	    1.200000E-02	    1.200000E-02	    8.750000E+02	    0.000000E+00	    0.000000E+00	    0.000000E+00	    0.000000E+00	
   -1.226503E-02	    1.416261E-03	    0.000000E+00	   -1.000000E+00	    1.200000E-02	    1.200000E-02	    8.750000E+02	    0.000000E+00	    0.000000E+00	    0.000000E+00	    0.000000E+00	
   -1.210625E-02	    1.958738E-03	    0.000000E+00	   -1.000000E+00	    1.200000E-02	    1.200000E-02	    8.750000E+02	    0.000000E+00	    0.000000E+00	    0.000000E+00	    0.000000E+00	
   -1.187289E-02	    2.629212E-03	    0.000000E+00	   -1.000000E+00	    1.200000E-02	    1.200000E-02	    8.750000E+02	    0.000000E+00	    0.000000E+00	    0.000000E+00	    0.000000E+00	
   -1.154107E-02	    3.421293E-03	    0.000000E+00	   -1.000000E+00	    1.200000E-02	    1.200000E-02	    8.750000E+02	    0.000000E+00	    0.000000E+00	    0.000000E+00	    0.000000E+00	
   -1.108815E-02	    4.313115E-03	    0.000000E+00	   -1.000000E+00	    1.200000E-02	    1.200000E-02	    8.750000E+02	    0.000000E+00	    0.000000E+00	    0.000000E+00	    0.000000E+00	
   -1.049834E-02	    5.267606E-03	    0.000000E+00	   -1.000000E+00	    1.200000E-02	    1.200000E-02	    8.750000E+02	    0.000000E+00	    0.000000E+00	    0.000000E+00	    0.000000E+00	
   -9.768484E-03	    6.236775E-03	    0.000000E+00	   -1.000000E+00	    1.200000E-02	    1.200000E-02	    8.750000E+02	    0.000000E+00	    0.000000E+00	    0.000000E+00	    0.000000E+00	
   -8.911426E-03	    7.169506E-03	    0.000000E+00	   -1.000000E+00	    1.200000E-02	    1.200000E-02	    8.750000E+02	    0.000000E+00	    0.000000E+00	    0.000000E+00	    0.000000E+00	
   -7.955325E-03	    8.020580E-03	    0.000000E+00	   -1.000000E+00	    1.200000E-02	    1.200000E-02	    8.750000E+02	    0.000000E+00	    0.000000E+00	    0.000000E+00	    0.000000E+00	
   -6.938716E-03	    8.757871E-03	    0.000000E+00	   -1.000000E+00	    1.200000E-02	    1.200000E-02	    8.750000E+02	    0.000000E+00	    0.000000E+00	    0.000000E+00	    0.000000E+00	
   -5.903337E-03	    9.365525E-03	    0.000000E+00	   -1.000000E+00	    1.200000E-02	    1.200000E-02	    8.750000E+02	    0.000000E+00	    0.000000E+00	    0.000000E+00	    0.000000E+00	
   -4.887355E-03	    9.842879E-03	    0.000000E+00	   -1.000000E+00	    1.200000E-02	    1.200000E-02	    8.750000E+02	    0.000000E+00	    0.000000E+00	    0.000000E+00	    0.000000E+00	
   -3.920890E-03	    1.020054E-02	    0.000000E+00	   -1.000000E+00	    1.200000E-02	    1.200000E-02	    8.750000E+02	    0.000000E+00	    0.000000E+00	    0.000000E+00	    0.000000E+00	
   -3.024360E-03	    1.045558E-02	    0.000000E+00	   -1.000000E+00	    1.200000E-02	    1.200000E-02	    8.750000E+02	    0.000000E+00	    0.000000E+00	    0.000000E+00	    0.000000E+00	
   -2.209034E-03	    1.062735E-02	    0.000000E+00	   -1.000000E+00	    1.200000E-02	    1.200000E-02	    8.750000E+02	    0.000000E+00	    0.000000E+00	    0.000000E+00	    0.000000E+00	
   -1.478802E-03	    1.073455E-02	    0.000000E+00	   -1.000000E+00	    1.200000E-02	    1.200000E-02	    8.750000E+02	    0.000000E+00	    0.000000E+00	    0.000000E+00	    0.000000E+00	
   -8.322840E-04	    1.079364E-02	    0.000000E+00	   -1.000000E+00	    1.200000E-02	    1.200000E-02	    8.750000E+02	    0.000000E+00	    0.000000E+00	    0.000000E+00	    0.000000E+00	
   -2.647516E-04	    1.081818E-02	    0.000000E+00	   -1.000000E+00	    1.200000E-02	    1.200000E-02	    8.750000E+02	    0.000000E+00	    0.000000E+00	    0.000000E+00	    0.000000E+00	
    2.647516E-04	    1.081818E-02	    0.000000E+00	   -1.000000E+00	    1.200000E-02	    1.200000E-02	    8.750000E+02	    0.000000E+00	    0.000000E+00	    0.000000E+00	    0.000000E+00	
    8.322840E-04	    1.079364E-02	    0.000000E+00	   -1.000000E+00	    1.200000E-02	    1.200000E-02	    8.750000E+02	    0.000000E+00	    0.000000E+00	    0.000000E+00	    0.000000E+00	
    1.478802E-03	    1.073455E-02	    0.000000E+00	   -1.000000E+00	    1.200000E-02	    1.200000E-02	    8.750000E+02	    0.000000E+00	    0.000000E+00	    0.000000E+00	    0.000000E+00	
    2.209034E-03	    1.062735E-02	    0.000000E+00	   -1.000000E+00	    1.200000E-02	    1.200000E-02	    8.750000E+02	    0.000000E+00	    0.000000E+00	    0.000000E+00	    0.000000E+00	
    3.024360E-03	    1.045558E-02	    0.000000E+00	   -1.000000E+00	    1.200000E-02	    1.200000E-02	    8.750000E+02	    0.000000E+00	    0.000000E+00	    0.000000E+00	    0.000000E+00	
    3.920890E-03	    1.020054E-02	    0.000000E+00	   -1.000000E+00	    1.200000E-02	    1.200000E-02	    8.750000E+02	    0.000000E+00	    0.000000E+00	    0.000000E+00	    0.000000E+00	
    4.887355E-03	    9.842879E-03	    0.000000E+00	   -1.000000E+00	    1.200000E-02	    1.200000E-02	    8.750000E+02	    0.000000E+00	    0.000000E+00	    0.000000E+00	    0.000000E+00	
    5.903337E-03	    9.365525E-03	    0.000000E+00	   -1.000000E+00	    1.200000E-02	    1.200000E-02	    8.750000E+02	    0.000000E+00	    0.000000E+00	    0.000000E+00	    0.000000E+00	
    6.938716E-03	    8.757871E-03	    0.000000E+00	   -1.000000E+00	    1.200000E-02	    1.200000E-02	    8.750000E+02	    0.000000E+00	    0.000000E+00	    0.000000E+00	    0.000000E+00	
    7.955325E-03	    8.020580E-03	    0.000000E+00	   -1.000000E+00	    1.200000E-02	    1.200000E-02	    8.750000E+02	    0.000000E+00	    0.000000E+00	    0.000000E+00	    0.000000E+00	
    8.911426E-03	    7.169506E-03	    0.000000E+00	   -1.000000E+00	    1.200000E-02	    1.200000E-02	    8.750000E+02	    0.000000E+00	    0.000000E+00	    0.000000E+00	    0.000000E+00	
    9.768484E-03	    6.236775E-03	    0.000000E+00	   -1.000000E+00	    1.200000E-02	    1.200000E-02	    8.750000E+02	    0.000000E+00	    0.000000E+00	    0.000000E+00	    0.000000E+00	
    1.049834E-02	    5.267606E-03	    0.000000E+00	   -1.000000E+00	    1.200000E-02	    1.200000E-02	    8.750000E+02	    0.000000E+00	    0.000000E+00	    0.000000E+00	    0.000000E+00	
    1.108815E-02	    4.313115E-03	    0.000000E+00	   -1.000000E+00	    1.200000E-02	    1.200000E-02	    8.750000E+02	    0.000000E+00	    0.000000E+00	    0.000000E+00	    0.000000E+00	
    1.154107E-02	    3.421293E-03	    0.000000E+00	   -1.000000E+00	    1.200000E-02	    1.200000E-02	    8.750000E+02	    0.000000E+00	    0.000000E+00	    0.000000E+00	    0.000000E+00	
    1.187289E-02	    2.629212E-03	    0.000000E+00	   -1.000000E+00	    1.200000E-02	    1.200000E-02	    8.750000E+02	    0.000000E+00	    0.000000E+00	    0.000000E+00	    0.000000E+00	
    1.210625E-02	    1.958738E-03	    0.000000E+00	   -1.000000E+00	    1.200000E-02	    1.200000E-02	    8.750000E+02	    0.000000E+00	    0.000000E+00	    0.000000E+00	    0.000000E+00	
    1.226503E-02	    1.416261E-03	    0.000000E+00	   -1.000000E+00	    1.200000E-02	    1.200000E-02	    8.750000E+02	    0.000000E+00	    0.000000E+00	    0.000000E+00	    0.000000E+00	
    1.237041E-02	    9.954785E-04	    0.000000E+00	   -1.000000E+00	    1.200000E-02	    1.200000E-02	    8.750000E+02	    0.000000E+00	    0.000000E+00	    0.000000E+00	    0.000000E+00	
    1.243916E-02	    6.816474E-04	    0.000000E+00	   -1.000000E+00	    1.200000E-02	    1.200000E-02	    8.750000E+02	    0.000000E+00	    0.000000E+00	    0.000000E+00	    0.000000E+00	
    1.248351E-02	    4.559055E-04	    0.000000E+00	   -1.000000E+00	    1.200000E-02	    1.200000E-02	    8.750000E+02	    0.000000E+00	    0.000000E+00	    0.000000E+00	    0.000000E+00	
    1.251187E-02	    2.987927E-04	    0.000000E+00	   -1.000000E+00	    1.200000E-02	    1.200000E-02	    8.750000E+02	    0.000000E+00	    0.000000E+00	    0.000000E+00	    0.000000E+00	
    1.252989E-02	    1.926114E-04	    0.000000E+00	   -1.000000E+00	    1.200000E-02	    1.200000E-02	    8.750000E+02	    0.000000E+00	    0.000000E+00	    0.000000E+00	    0.000000E+00	
    1.254126E-02	    1.226500E-04	    0.000000E+00	   -1.000000E+00	    1.200000E-02	    1.200000E-02	    8.750000E+02	    0.000000E+00	    0.000000E+00	    0.000000E+00	    0.000000E+00	
    1.254838E-02	    7.750994E-05	    0.000000E+00	   -1.000000E+00	    1.200000E-02	    1.200000E-02	    8.750000E+02	    0.000000E+00	    0.000000E+00	    0.000000E+00	    0.000000E+00	
    1.255086E-02	    6.153651E-05	    0.000000E+00	   -1.000000E+00	    1.200000E-02	    1.200000E-02	    8.750000E+02	    0.000000E+00	    0.000000E+00	    0.000000E+00	    0.000000E+00	
   -1.255048E-02	    6.147676E-05	    0.000000E+00	   -1.000000E+00	    1.200000E-02	    1.200000E-02	    8.750000E+02	    0.000000E+00	    0.000000E+00	    0.000000E+00	    0.000000E+00	
   -1.254790E-02	    7.743408E-05	    3.574906E-05	   -1.000000E+00	    1.200053E-02	    1.200000E-02	    8.750000E+02	    3.553159E-06	    1.402292E-03	    3.453282E+05	    5.479944E+03	
   -1.254050E-02	    1.225272E-04	    1.141020E-04	   -1.000000E+00	    1.200064E-02	    1.200000E-02	    8.750000E+02	    4.293939E-06	    8.179199E-04	    1.666721E+05	    2.229600E+04	
   -1.252871E-02	    1.924120E-04	    2.146275E-04	   -1.000000E+00	    1.200095E-02	    1.200000E-02	    8.750000E+02	    6.348442E-06	    7.249685E-04	    9.992176E+04	    3.198556E+04	
   -1.251004E-02	    2.984679E-04	    3.527797E-04	   -1.000000E+00	    1.200161E-02	    1.200000E-02	    8.750000E+02	    1.076572E-05	    8.663977E-04	    7.041778E+04	    3.590718E+04	
   -1.248072E-02	    4.553748E-04	    5.441644E-04	   -1.000000E+00	    1.200278E-02	    1.200000E-02	    8.750000E+02	    1.856370E-05	    1.106583E-03	    5.215880E+04	    3.669183E+04	
   -1.243501E-02	    6.807786E-04	    8.030184E-04	   -1.000000E+00	    1.200465E-02	    1.200000E-02	    8.750000E+02	    3.102123E-05	    1.382456E-03	    3.899423E+04	    3.573536E+04	
   -1.236438E-02	    9.940568E-04	    1.140909E-03	   -1.000000E+00	    1.200747E-02	    1.200000E-02	    8.750000E+02	    4.977095E-05	    1.668813E-03	    2.933863E+04	    3.381107E+04	
   -1.225652E-02	    1.413947E-03	    1.566822E-03	   -1.000000E+00	    1.201149E-02	    1.200000E-02	    8.750000E+02	    7.663127E-05	    1.954946E-03	    2.232219E+04	    3.148858E+04	
   -1.209464E-02	    1.955018E-03	    2.087409E-03	   -1.000000E+00	    1.201700E-02	    1.200000E-02	    8.750000E+02	    1.133475E-04	    2.236638E-03	    1.726600E+04	    2.919786E+04	
   -1.185760E-02	    2.623357E-03	    2.704679E-03	   -1.000000E+00	    1.202418E-02	    1.200000E-02	    8.750000E+02	    1.611887E-04	    2.511222E-03	    1.363197E+04	    2.718015E+04	
   -1.152174E-02	    3.412350E-03	    3.411668E-03	   -1.000000E+00	    1.203306E-02	    1.200000E-02	    8.750000E+02	    2.204204E-04	    2.774334E-03	    1.101324E+04	    2.550939E+04	
   -1.106475E-02	    4.299964E-03	    4.189217E-03	   -1.000000E+00	    1.204348E-02	    1.200000E-02	    8.750000E+02	    2.898443E-04	    3.019761E-03	    9.116243E+03	    2.416621E+04	
   -1.047130E-02	    5.249093E-03	    5.006143E-03	   -1.000000E+00	    1.205500E-02	    1.200000E-02	    8.750000E+02	    3.666513E-04	    3.241216E-03	    7.735042E+03	    2.309987E+04	
   -9.738702E-03	    6.211912E-03	    5.823232E-03	   -1.000000E+00	    1.206701E-02	    1.200000E-02	    8.750000E+02	    4.467341E-04	    3.434091E-03	    6.726215E+03	    2.225898E+04	
   -8.880209E-03	    7.137670E-03	    6.599913E-03	   -1.000000E+00	    1.207881E-02	    1.200000E-02	    8.750000E+02	    5.254137E-04	    3.596301E-03	    5.989116E+03	    2.160074E+04	
   -7.924162E-03	    7.981645E-03	    7.301440E-03	   -1.000000E+00	    1.208975E-02	    1.200000E-02	    8.750000E+02	    5.983435E-04	    3.728224E-03	    5.452045E+03	    2.109096E+04	
   -6.909047E-03	    8.712220E-03	    7.904214E-03	   -1.000000E+00	    1.209934E-02	    1.200000E-02	    8.750000E+02	    6.622699E-04	    3.832143E-03	    5.063079E+03	    2.070189E+04	
   -5.876352E-03	    9.313943E-03	    8.397771E-03	   -1.000000E+00	    1.210731E-02	    1.200000E-02	    8.750000E+02	    7.154109E-04	    3.911509E-03	    4.784063E+03	    2.041033E+04	
   -4.863881E-03	    9.786388E-03	    8.783512E-03	   -1.000000E+00	    1.211361E-02	    1.200000E-02	    8.750000E+02	    7.574133E-04	    3.970272E-03	    4.586648E+03	    2.019657E+04	
   -3.901377E-03	    1.014023E-02	    9.071369E-03	   -1.000000E+00	    1.211835E-02	    1.200000E-02	    8.750000E+02	    7.890166E-04	    4.012365E-03	    4.449615E+03	    2.004388E+04	
   -3.008934E-03	    1.039247E-02	    9.275965E-03	   -1.000000E+00	    1.212174E-02	    1.200000E-02	    8.750000E+02	    8.116132E-04	    4.041387E-03	    4.357019E+03	    1.993824E+04	
   -2.197583E-03	    1.056231E-02	    9.413359E-03	   -1.000000E+00	    1.212403E-02	    1.200000E-02	    8.750000E+02	    8.268540E-04	    4.060436E-03	    4.296867E+03	    1.986813E+04	
   -1.471059E-03	    1.066830E-02	    9.498831E-03	   -1.000000E+00	    1.212546E-02	    1.200000E-02	    8.750000E+02	    8.363682E-04	    4.072065E-03	    4.260154E+03	    1.982430E+04	
   -8.279024E-04	    1.072672E-02	    9.545695E-03	   -1.000000E+00	    1.212624E-02	    1.200000E-02	    8.750000E+02	    8.416043E-04	    4.078307E-03	    4.240138E+03	    1.979947E+04	
   -2.633547E-04	    1.075098E-02	    9.564862E-03	   -1.000000E+00	    1.212656E-02	    1.200000E-02	    8.750000E+02	    8.437656E-04	    4.080753E-03	    4.231813E+03	    1.978800E+04	
    2.633547E-04	    1.075098E-02	    9.564862E-03	   -1.000000E+00	    1.212656E-02	    1.200000E-02	    8.750000E+02	    8.437656E-04	    4.080753E-03	    4.231813E+03	    1.978800E+04	
    8.279024E-04	    1.072672E-02	    9.545695E-03	   -1.000000E+00	    1.212624E-02	    1.200000E-02	    8.750000E+02	    8.416043E-04	    4.078307E-03	    4.240139E+03	    1.979947E+04	
    1.471059E-03	    1.066830E-02	    9.498832E-03	   -1.000000E+00	    1.212546E-02	    1.200000E-02	    8.750000E+02	    8.363683E-04	    4.072066E-03	    4.260154E+03	    1.982430E+04	
    2.197583E-03	    1.056231E-02	    9.413360E-03	   -1.000000E+00	    1.212403E-02	    1.200000E-02	    8.750000E+02	    8.268541E-04	    4.060437E-03	    4.296867E+03	    1.986814E+04	
    3.008934E-03	    1.039247E-02	    9.275966E-03	   -1.000000E+00	    1.212174E-02	    1.200000E-02	    8.750000E+02	    8.116133E-04	    4.041388E-03	    4.357019E+03	    1.993825E+04	
    3.901377E-03	    1.014023E-02	    9.071371E-03	   -1.000000E+00	    1.211835E-02	    1.200000E-02	    8.750000E+02	    7.890167E-04	    4.012366E-03	    4.449615E+03	    2.004389E+04	
    4.863881E-03	    9.786388E-03	    8.783515E-03	   -1.000000E+00	    1.211361E-02	    1.200000E-02	    8.750000E+02	    7.574134E-04	    3.970273E-03	    4.586648E+03	    2.019658E+04	
    5.876352E-03	    9.313943E-03	    8.397774E-03	   -1.000000E+00	    1.210731E-02	    1.200000E-02	    8.750000E+02	    7.154111E-04	    3.911511E-03	    4.784064E+03	    2.041034E+04	
    6.909047E-03	    8.712220E-03	    7.904217E-03	   -1.000000E+00	    1.209934E-02	    1.200000E-02	    8.750000E+02	    6.622701E-04	    3.832144E-03	    5.063080E+03	    2.070191E+04	
    7.924162E-03	    7.981645E-03	    7.301444E-03	   -1.000000E+00	    1.208975E-02	    1.200000E-02	    8.750000E+02	    5.983437E-04	    3.728226E-03	    5.452046E+03	    2.109099E+04	
    8.880209E-03	    7.137670E-03	    6.599917E-03	   -1.000000E+00	    1.207881E-02	    1.200000E-02	    8.750000E+02	    5.254138E-04	    3.596303E-03	    5.989118E+03	    2.160077E+04	
    9.738702E-03	    6.211912E-03	    5.823236E-03	   -1.000000E+00	    1.206701E-02	    1.200000E-02	    8.750000E+02	    4.467343E-04	    3.434094E-03	    6.726218E+03	    2.225901E+04	
    1.047130E-02	    5.249093E-03	    5.006147E-03	   -1.000000E+00	    1.205500E-02	    1.200000E-02	    8.750000E+02	    3.666515E-04	    3.241218E-03	    7.735046E+03	    2.309991E+04	
    1.106475E-02	    4.299964E-03	    4.189221E-03	   -1.000000E+00	    1.204348E-02	    1.200000E-02	    8.750000E+02	    2.898444E-04	    3.019763E-03	    9.116247E+03	    2.416626E+04	
    1.152174E-02	    3.412350E-03	    3.411672E-03	   -1.000000E+00	    1.203306E-02	    1.200000E-02	    8.750000E+02	    2.204205E-04	    2.774336E-03	    1.101324E+04	    2.550946E+04	
    1.185760E-02	    2.623357E-03	    2.704683E-03	   -1.000000E+00	    1.202418E-02	    1.200000E-02	    8.750000E+02	    1.611888E-04	    2.511225E-03	    1.363198E+04	    2.718024E+04	
    1.209464E-02	    1.955018E-03	    2.087415E-03	   -1.000000E+00	    1.201700E-02	    1.200000E-02	    8.750000E+02	    1.133476E-04	    2.236641E-03	    1.726602E+04	    2.919802E+04	
    1.225652E-02	    1.413947E-03	    1.566830E-03	   -1.000000E+00	    1.201149E-02	    1.200000E-02	    8.750000E+02	    7.663140E-05	    1.954952E-03	    2.232223E+04	    3.148893E+04	
    1.236438E-02	    9.940568E-04	    1.140924E-03	   -1.000000E+00	    1.200747E-02	    1.200000E-02	    8.750000E+02	    4.977123E-05	    1.668832E-03	    2.933879E+04	    3.381197E+04	
    1.243501E-02	    6.807786E-04	    8.030461E-04	   -1.000000E+00	    1.200465E-02	    1.200000E-02	    8.750000E+02	    3.102182E-05	    1.382509E-03	    3.899497E+04	    3.573783E+04	
    1.248072E-02	    4.553748E-04	    5.442132E-04	   -1.000000E+00	    1.200278E-02	    1.200000E-02	    8.750000E+02	    1.856502E-05	    1.106741E-03	    5.216251E+04	    3.669842E+04	
    1.251004E-02	    2.984679E-04	    3.528601E-04	   -1.000000E+00	    1.200162E-02	    1.200000E-02	    8.750000E+02	    1.076890E-05	    8.669097E-04	    7.043858E+04	    3.592356E+04	
    1.252871E-02	    1.924120E-04	    2.147468E-04	   -1.000000E+00	    1.200095E-02	    1.200000E-02	    8.750000E+02	    6.355591E-06	    7.266024E-04	    1.000343E+05	    3.202112E+04	
    1.254050E-02	    1.225272E-04	    1.142449E-04	   -1.000000E+00	    1.200065E-02	    1.200000E-02	    8.750000E+02	    4.306067E-06	    8.225466E-04	    1.671428E+05	    2.235187E+04	
    1.254790E-02	    7.743408E-05	    3.583800E-05	   -1.000000E+00	    1.200054E-02	    1.200000E-02	    8.750000E+02	    3.568915E-06	    1.414757E-03	    3.468595E+05	    5.507232E+03	
    1.255048E-02	    6.147676E-05	    0.000000E+00	   -1.000000E+00	    1.200000E-02	    1.200000E-02	    8.750000E+02	    0.000000E+00	    0.000000E+00	    0.000000E+00	    0.000000E+00	
   -1.254961E-02	    6.132956E-05	    0.000000E+00	   -1.000000E+00	    1.200000E-02	    1.200000E-02	    8.750000E+02	    0.000000E+00	    0.000000E+00	    0.000000E+00	    0.000000E+00	
