Title="Fields"
Variables="X""Y""Velocity""Phi""Effective Viscosity""Dynamic Viscosity""Density""Eddy Viscosity""K""Omega""S"
Zone I=52 J=52 F=POINT
   -1.214900E-02	    6.022725E-05	    0.000000E+00	    0.000000E+00	    1.000000E-03	    1.000000E-03	    1.000000E+03	    0.000000E+00	    0.000000E+00	    0.000000E+00	    0.000000E+00	
   -1.214879E-02	    7.587451E-05	    0.000000E+00	    0.000000E+00	    1.000000E-03	    1.000000E-03	    1.000000E+03	    0.000000E+00	    0.000000E+00	    0.000000E+00	    0.000000E+00	
   -1.214809E-02	    1.201233E-04	    0.000000E+00	    0.000000E+00	    1.000000E-03	    1.000000E-03	    1.000000E+03	    0.000000E+00	    0.000000E+00	    0.000000E+00	    0.000000E+00	
   -1.214668E-02	    1.887926E-04	    0.000000E+00	    0.000000E+00	    1.000000E-03	    1.000000E-03	    1.000000E+03	    0.000000E+00	    0.000000E+00	    0.000000E+00	    0.000000E+00	
   -1.214378E-02	    2.932208E-04	    0.000000E+00	    0.000000E+00	    1.000000E-03	    1.000000E-03	    1.000000E+03	    0.000000E+00	    0.000000E+00	    0.000000E+00	    0.000000E+00	
   -1.213783E-02	    4.482006E-04	    0.000000E+00	    0.000000E+00	    1.000000E-03	    1.000000E-03	    1.000000E+03	    0.000000E+00	    0.000000E+00	    0.000000E+00	    0.000000E+00	
   -1.212575E-02	    6.718468E-04	    0.000000E+00	    0.000000E+00	    1.000000E-03	    1.000000E-03	    1.000000E+03	    0.000000E+00	    0.000000E+00	    0.000000E+00	    0.000000E+00	
   -1.210190E-02	    9.846781E-04	    0.000000E+00	    0.000000E+00	    1.000000E-03	    1.000000E-03	    1.000000E+03	    0.000000E+00	    0.000000E+00	    0.000000E+00	    0.000000E+00	
   -1.205667E-02	    1.407652E-03	    0.000000E+00	    0.000000E+00	    1.000000E-03	    1.000000E-03	    1.000000E+03	    0.000000E+00	    0.000000E+00	    0.000000E+00	    0.000000E+00	
   -1.197505E-02	    1.959012E-03	    0.000000E+00	    0.000000E+00	    1.000000E-03	    1.000000E-03	    1.000000E+03	    0.000000E+00	    0.000000E+00	    0.000000E+00	    0.000000E+00	
   -1.183574E-02	    2.650072E-03	    0.000000E+00	    0.000000E+00	    1.000000E-03	    1.000000E-03	    1.000000E+03	    0.000000E+00	    0.000000E+00	    0.000000E+00	    0.000000E+00	
   -1.161187E-02	    3.480480E-03	    0.000000E+00	    0.000000E+00	    1.000000E-03	    1.000000E-03	    1.000000E+03	    0.000000E+00	    0.000000E+00	    0.000000E+00	    0.000000E+00	
   -1.127412E-02	    4.434122E-03	    0.000000E+00	    0.000000E+00	    1.000000E-03	    1.000000E-03	    1.000000E+03	    0.000000E+00	    0.000000E+00	    0.000000E+00	    0.000000E+00	
   -1.079659E-02	    5.477374E-03	    0.000000E+00	    0.000000E+00	    1.000000E-03	    1.000000E-03	    1.000000E+03	    0.000000E+00	    0.000000E+00	    0.000000E+00	    0.000000E+00	
   -1.016412E-02	    6.561389E-03	    0.000000E+00	    0.000000E+00	    1.000000E-03	    1.000000E-03	    1.000000E+03	    0.000000E+00	    0.000000E+00	    0.000000E+00	    0.000000E+00	
   -9.378478E-03	    7.628997E-03	    0.000000E+00	    0.000000E+00	    1.000000E-03	    1.000000E-03	    1.000000E+03	    0.000000E+00	    0.000000E+00	    0.000000E+00	    0.000000E+00	
   -8.460625E-03	    8.624687E-03	    0.000000E+00	    0.000000E+00	    1.000000E-03	    1.000000E-03	    1.000000E+03	    0.000000E+00	    0.000000E+00	    0.000000E+00	    0.000000E+00	
   -7.447535E-03	    9.504407E-03	    0.000000E+00	    0.000000E+00	    1.000000E-03	    1.000000E-03	    1.000000E+03	    0.000000E+00	    0.000000E+00	    0.000000E+00	    0.000000E+00	
   -6.384786E-03	    1.024174E-02	    0.000000E+00	    0.000000E+00	    1.000000E-03	    1.000000E-03	    1.000000E+03	    0.000000E+00	    0.000000E+00	    0.000000E+00	    0.000000E+00	
   -5.317958E-03	    1.082895E-02	    0.000000E+00	    0.000000E+00	    1.000000E-03	    1.000000E-03	    1.000000E+03	    0.000000E+00	    0.000000E+00	    0.000000E+00	    0.000000E+00	
   -4.285789E-03	    1.127359E-02	    0.000000E+00	    0.000000E+00	    1.000000E-03	    1.000000E-03	    1.000000E+03	    0.000000E+00	    0.000000E+00	    0.000000E+00	    0.000000E+00	
   -3.316603E-03	    1.159315E-02	    0.000000E+00	    0.000000E+00	    1.000000E-03	    1.000000E-03	    1.000000E+03	    0.000000E+00	    0.000000E+00	    0.000000E+00	    0.000000E+00	
   -2.427825E-03	    1.180954E-02	    0.000000E+00	    0.000000E+00	    1.000000E-03	    1.000000E-03	    1.000000E+03	    0.000000E+00	    0.000000E+00	    0.000000E+00	    0.000000E+00	
   -1.627504E-03	    1.194508E-02	    0.000000E+00	    0.000000E+00	    1.000000E-03	    1.000000E-03	    1.000000E+03	    0.000000E+00	    0.000000E+00	    0.000000E+00	    0.000000E+00	
   -9.166700E-04	    1.201995E-02	    0.000000E+00	    0.000000E+00	    1.000000E-03	    1.000000E-03	    1.000000E+03	    0.000000E+00	    0.000000E+00	    0.000000E+00	    0.000000E+00	
   -2.916870E-04	    1.205108E-02	    0.000000E+00	    0.000000E+00	    1.000000E-03	    1.000000E-03	    1.000000E+03	    0.000000E+00	    0.000000E+00	    0.000000E+00	    0.000000E+00	
    2.916870E-04	    1.205108E-02	    0.000000E+00	    0.000000E+00	    1.000000E-03	    1.000000E-03	    1.000000E+03	    0.000000E+00	    0.000000E+00	    0.000000E+00	    0.000000E+00	
    9.166700E-04	    1.201995E-02	    0.000000E+00	    0.000000E+00	    1.000000E-03	    1.000000E-03	    1.000000E+03	    0.000000E+00	    0.000000E+00	    0.000000E+00	    0.000000E+00	
    1.627504E-03	    1.194508E-02	    0.000000E+00	    0.000000E+00	    1.000000E-03	    1.000000E-03	    1.000000E+03	    0.000000E+00	    0.000000E+00	    0.000000E+00	    0.000000E+00	
    2.427825E-03	    1.180954E-02	    0.000000E+00	    0.000000E+00	    1.000000E-03	    1.000000E-03	    1.000000E+03	    0.000000E+00	    0.000000E+00	    0.000000E+00	    0.000000E+00	
    3.316603E-03	    1.159315E-02	    0.000000E+00	    0.000000E+00	    1.000000E-03	    1.000000E-03	    1.000000E+03	    0.000000E+00	    0.000000E+00	    0.000000E+00	    0.000000E+00	
    4.285789E-03	    1.127359E-02	    0.000000E+00	    0.000000E+00	    1.000000E-03	    1.000000E-03	    1.000000E+03	    0.000000E+00	    0.000000E+00	    0.000000E+00	    0.000000E+00	
    5.317958E-03	    1.082895E-02	    0.000000E+00	    0.000000E+00	    1.000000E-03	    1.000000E-03	    1.000000E+03	    0.000000E+00	    0.000000E+00	    0.000000E+00	    0.000000E+00	
    6.384786E-03	    1.024174E-02	    0.000000E+00	    0.000000E+00	    1.000000E-03	    1.000000E-03	    1.000000E+03	    0.000000E+00	    0.000000E+00	    0.000000E+00	    0.000000E+00	
    7.447535E-03	    9.504407E-03	    0.000000E+00	    0.000000E+00	    1.000000E-03	    1.000000E-03	    1.000000E+03	    0.000000E+00	    0.000000E+00	    0.000000E+00	    0.000000E+00	
    8.460625E-03	    8.624687E-03	    0.000000E+00	    0.000000E+00	    1.000000E-03	    1.000000E-03	    1.000000E+03	    0.000000E+00	    0.000000E+00	    0.000000E+00	    0.000000E+00	
    9.378478E-03	    7.628997E-03	    0.000000E+00	    0.000000E+00	    1.000000E-03	    1.000000E-03	    1.000000E+03	    0.000000E+00	    0.000000E+00	    0.000000E+00	    0.000000E+00	
    1.016412E-02	    6.561389E-03	    0.000000E+00	    0.000000E+00	    1.000000E-03	    1.000000E-03	    1.000000E+03	    0.000000E+00	    0.000000E+00	    0.000000E+00	    0.000000E+00	
    1.079659E-02	    5.477374E-03	    0.000000E+00	    0.000000E+00	    1.000000E-03	    1.000000E-03	    1.000000E+03	    0.000000E+00	    0.000000E+00	    0.000000E+00	    0.000000E+00	
    1.127412E-02	    4.434122E-03	    0.000000E+00	    0.000000E+00	    1.000000E-03	    1.000000E-03	    1.000000E+03	    0.000000E+00	    0.000000E+00	    0.000000E+00	    0.000000E+00	
    1.161187E-02	    3.480480E-03	    0.000000E+00	    0.000000E+00	    1.000000E-03	    1.000000E-03	    1.000000E+03	    0.000000E+00	    0.000000E+00	    0.000000E+00	    0.000000E+00	
    1.183574E-02	    2.650072E-03	    0.000000E+00	    0.000000E+00	    1.000000E-03	    1.000000E-03	    1.000000E+03	    0.000000E+00	    0.000000E+00	    0.000000E+00	    0.000000E+00	
    1.197505E-02	    1.959012E-03	    0.000000E+00	    0.000000E+00	    1.000000E-03	    1.000000E-03	    1.000000E+03	    0.000000E+00	    0.000000E+00	    0.000000E+00	    0.000000E+00	
    1.205667E-02	    1.407652E-03	    0.000000E+00	    0.000000E+00	    1.000000E-03	    1.000000E-03	    1.000000E+03	    0.000000E+00	    0.000000E+00	    0.000000E+00	    0.000000E+00	
    1.210190E-02	    9.846781E-04	    0.000000E+00	    0.000000E+00	    1.000000E-03	    1.000000E-03	    1.000000E+03	    0.000000E+00	    0.000000E+00	    0.000000E+00	    0.000000E+00	
    1.212575E-02	    6.718468E-04	    0.000000E+00	    0.000000E+00	    1.000000E-03	    1.000000E-03	    1.000000E+03	    0.000000E+00	    0.000000E+00	    0.000000E+00	    0.000000E+00	
    1.213783E-02	    4.482006E-04	    0.000000E+00	    0.000000E+00	    1.000000E-03	    1.000000E-03	    1.000000E+03	    0.000000E+00	    0.000000E+00	    0.000000E+00	    0.000000E+00	
    1.214378E-02	    2.932208E-04	    0.000000E+00	    0.000000E+00	    1.000000E-03	    1.000000E-03	    1.000000E+03	    0.000000E+00	    0.000000E+00	    0.000000E+00	    0.000000E+00	
    1.214668E-02	    1.887926E-04	    0.000000E+00	    0.000000E+00	    1.000000E-03	    1.000000E-03	    1.000000E+03	    0.000000E+00	    0.000000E+00	    0.000000E+00	    0.000000E+00	
    1.214809E-02	    1.201233E-04	    0.000000E+00	    0.000000E+00	    1.000000E-03	    1.000000E-03	    1.000000E+03	    0.000000E+00	    0.000000E+00	    0.000000E+00	    0.000000E+00	
    1.214879E-02	    7.587451E-05	    0.000000E+00	    0.000000E+00	    1.000000E-03	    1.000000E-03	    1.000000E+03	    0.000000E+00	    0.000000E+00	    0.000000E+00	    0.000000E+00	
    1.214900E-02	    6.022725E-05	    0.000000E+00	    0.000000E+00	    1.000000E-03	    1.000000E-03	    1.000000E+03	    0.000000E+00	    0.000000E+00	    0.000000E+00	    0.000000E+00	
   -1.214860E-02	    6.022064E-05	    0.000000E+00	    0.000000E+00	    1.000000E-03	    1.000000E-03	    1.000000E+03	    0.000000E+00	    0.000000E+00	    0.000000E+00	    0.000000E+00	
   -1.214828E-02	    7.586553E-05	    4.484189E-04	   -1.000000E+00	    1.601121E-03	    1.600000E-03	    8.010000E+02	    6.225918E-06	    4.539116E-03	    5.839832E+05	    4.996399E+05	
   -1.214727E-02	    1.201061E-04	    1.063724E-03	   -1.000000E+00	    1.601163E-03	    1.600000E-03	    8.010000E+02	    6.459425E-06	    1.949396E-03	    2.417345E+05	    1.128423E+06	
   -1.214540E-02	    1.887584E-04	    1.871201E-03	   -1.000000E+00	    1.602037E-03	    1.600000E-03	    8.010000E+02	    1.131418E-05	    2.421362E-03	    1.714230E+05	    1.412958E+06	
   -1.214180E-02	    2.931506E-04	    2.983254E-03	   -1.000000E+00	    1.603605E-03	    1.600000E-03	    8.010000E+02	    2.002622E-05	    3.144975E-03	    1.257914E+05	    1.487615E+06	
   -1.213480E-02	    4.480546E-04	    4.560593E-03	   -1.000000E+00	    1.606134E-03	    1.600000E-03	    8.010000E+02	    3.407881E-05	    3.898255E-03	    9.162592E+04	    1.486021E+06	
   -1.212121E-02	    6.715442E-04	    6.803354E-03	   -1.000000E+00	    1.610076E-03	    1.600000E-03	    8.010000E+02	    5.597723E-05	    4.681476E-03	    6.698906E+04	    1.468727E+06	
   -1.209526E-02	    9.840631E-04	    9.934166E-03	   -1.000000E+00	    1.615975E-03	    1.600000E-03	    8.010000E+02	    8.874953E-05	    5.479233E-03	    4.945227E+04	    1.453324E+06	
   -1.204722E-02	    1.406441E-03	    1.417168E-02	   -1.000000E+00	    1.624406E-03	    1.600000E-03	    8.010000E+02	    1.355862E-04	    6.259202E-03	    3.697737E+04	    1.440678E+06	
   -1.196199E-02	    1.956726E-03	    1.969520E-02	   -1.000000E+00	    1.635884E-03	    1.600000E-03	    8.010000E+02	    1.993572E-04	    6.988784E-03	    2.808033E+04	    1.427388E+06	
   -1.181829E-02	    2.645963E-03	    2.659996E-02	   -1.000000E+00	    1.650759E-03	    1.600000E-03	    8.010000E+02	    2.819953E-04	    7.644465E-03	    2.171390E+04	    1.409933E+06	
   -1.158939E-02	    3.473478E-03	    3.485065E-02	   -1.000000E+00	    1.669085E-03	    1.600000E-03	    8.010000E+02	    3.838076E-04	    8.213498E-03	    1.714143E+04	    1.385874E+06	
   -1.124633E-02	    4.422856E-03	    4.424781E-02	   -1.000000E+00	    1.690519E-03	    1.600000E-03	    8.010000E+02	    5.028833E-04	    8.692181E-03	    1.384504E+04	    1.354421E+06	
   -1.076374E-02	    5.460290E-03	    5.442342E-02	   -1.000000E+00	    1.714273E-03	    1.600000E-03	    8.010000E+02	    6.348492E-04	    9.083598E-03	    1.146093E+04	    1.316765E+06	
   -1.012709E-02	    6.536988E-03	    6.487637E-02	   -1.000000E+00	    1.739176E-03	    1.600000E-03	    8.010000E+02	    7.731997E-04	    9.395387E-03	    9.733197E+03	    1.275751E+06	
   -9.338775E-03	    7.596122E-03	    7.504999E-02	   -1.000000E+00	    1.763848E-03	    1.600000E-03	    8.010000E+02	    9.102651E-04	    9.637873E-03	    8.480976E+03	    1.234919E+06	
   -8.420156E-03	    8.582780E-03	    8.443082E-02	   -1.000000E+00	    1.786944E-03	    1.600000E-03	    8.010000E+02	    1.038579E-03	    9.822288E-03	    7.575400E+03	    1.197373E+06	
   -7.408296E-03	    9.453613E-03	    9.263394E-02	   -1.000000E+00	    1.807396E-03	    1.600000E-03	    8.010000E+02	    1.152199E-03	    9.959491E-03	    6.923761E+03	    1.165092E+06	
   -6.348552E-03	    1.018285E-02	    9.944848E-02	   -1.000000E+00	    1.824557E-03	    1.600000E-03	    8.010000E+02	    1.247537E-03	    1.005932E-02	    6.458739E+03	    1.138862E+06	
   -5.286058E-03	    1.076317E-02	    1.048356E-01	   -1.000000E+00	    1.838229E-03	    1.600000E-03	    8.010000E+02	    1.323494E-03	    1.013030E-02	    6.131022E+03	    1.118564E+06	
   -4.259032E-03	    1.120236E-02	    1.088910E-01	   -1.000000E+00	    1.848582E-03	    1.600000E-03	    8.010000E+02	    1.381009E-03	    1.017949E-02	    5.904212E+03	    1.103548E+06	
   -3.295314E-03	    1.151785E-02	    1.117919E-01	   -1.000000E+00	    1.856019E-03	    1.600000E-03	    8.010000E+02	    1.422330E-03	    1.021251E-02	    5.751284E+03	    1.092935E+06	
   -2.411952E-03	    1.173144E-02	    1.137490E-01	   -1.000000E+00	    1.861053E-03	    1.600000E-03	    8.010000E+02	    1.450297E-03	    1.023374E-02	    5.652102E+03	    1.085818E+06	
   -1.616742E-03	    1.186519E-02	    1.149706E-01	   -1.000000E+00	    1.864204E-03	    1.600000E-03	    8.010000E+02	    1.467799E-03	    1.024646E-02	    5.591651E+03	    1.081369E+06	
   -9.105707E-04	    1.193906E-02	    1.156422E-01	   -1.000000E+00	    1.865941E-03	    1.600000E-03	    8.010000E+02	    1.477449E-03	    1.025314E-02	    5.558748E+03	    1.078884E+06	
   -2.897411E-04	    1.196977E-02	    1.159178E-01	   -1.000000E+00	    1.866659E-03	    1.600000E-03	    8.010000E+02	    1.481438E-03	    1.025557E-02	    5.545095E+03	    1.077794E+06	
    2.897411E-04	    1.196977E-02	    1.159178E-01	   -1.000000E+00	    1.866659E-03	    1.600000E-03	    8.010000E+02	    1.481438E-03	    1.025557E-02	    5.545095E+03	    1.077794E+06	
    9.105707E-04	    1.193906E-02	    1.156422E-01	   -1.000000E+00	    1.865941E-03	    1.600000E-03	    8.010000E+02	    1.477449E-03	    1.025314E-02	    5.558748E+03	    1.078884E+06	
    1.616742E-03	    1.186519E-02	    1.149706E-01	   -1.000000E+00	    1.864204E-03	    1.600000E-03	    8.010000E+02	    1.467799E-03	    1.024646E-02	    5.591651E+03	    1.081369E+06	
    2.411952E-03	    1.173144E-02	    1.137490E-01	   -1.000000E+00	    1.861053E-03	    1.600000E-03	    8.010000E+02	    1.450297E-03	    1.023374E-02	    5.652102E+03	    1.085818E+06	
    3.295314E-03	    1.151785E-02	    1.117919E-01	   -1.000000E+00	    1.856019E-03	    1.600000E-03	    8.010000E+02	    1.422330E-03	    1.021251E-02	    5.751284E+03	    1.092935E+06	
    4.259032E-03	    1.120236E-02	    1.088910E-01	   -1.000000E+00	    1.848582E-03	    1.600000E-03	    8.010000E+02	    1.381009E-03	    1.017949E-02	    5.904212E+03	    1.103548E+06	
    5.286058E-03	    1.076317E-02	    1.048356E-01	   -1.000000E+00	    1.838229E-03	    1.600000E-03	    8.010000E+02	    1.323494E-03	    1.013030E-02	    6.131022E+03	    1.118564E+06	
    6.348552E-03	    1.018285E-02	    9.944848E-02	   -1.000000E+00	    1.824557E-03	    1.600000E-03	    8.010000E+02	    1.247537E-03	    1.005932E-02	    6.458739E+03	    1.138862E+06	
    7.408296E-03	    9.453613E-03	    9.263394E-02	   -1.000000E+00	    1.807396E-03	    1.600000E-03	    8.010000E+02	    1.152199E-03	    9.959491E-03	    6.923761E+03	    1.165092E+06	
    8.420156E-03	    8.582780E-03	    8.443082E-02	   -1.000000E+00	    1.786944E-03	    1.600000E-03	    8.010000E+02	    1.038579E-03	    9.822288E-03	    7.575400E+03	    1.197373E+06	
    9.338775E-03	    7.596122E-03	    7.504999E-02	   -1.000000E+00	    1.763848E-03	    1.600000E-03	    8.010000E+02	    9.102651E-04	    9.637873E-03	    8.480976E+03	    1.234919E+06	
    1.012709E-02	    6.536988E-03	    6.487637E-02	   -1.000000E+00	    1.739176E-03	    1.600000E-03	    8.010000E+02	    7.731997E-04	    9.395387E-03	    9.733197E+03	    1.275751E+06	
    1.076374E-02	    5.460290E-03	    5.442342E-02	   -1.000000E+00	    1.714273E-03	    1.600000E-03	    8.010000E+02	    6.348492E-04	    9.083598E-03	    1.146093E+04	    1.316765E+06	
    1.124633E-02	    4.422856E-03	    4.424781E-02	   -1.000000E+00	    1.690519E-03	    1.600000E-03	    8.010000E+02	    5.028833E-04	    8.692181E-03	    1.384504E+04	    1.354421E+06	
    1.158939E-02	    3.473478E-03	    3.485065E-02	   -1.000000E+00	    1.669085E-03	    1.600000E-03	    8.010000E+02	    3.838076E-04	    8.213498E-03	    1.714143E+04	    1.385874E+06	
    1.181829E-02	    2.645963E-03	    2.659996E-02	   -1.000000E+00	    1.650759E-03	    1.600000E-03	    8.010000E+02	    2.819953E-04	    7.644465E-03	    2.171390E+04	    1.409933E+06	
    1.196199E-02	    1.956726E-03	    1.969520E-02	   -1.000000E+00	    1.635884E-03	    1.600000E-03	    8.010000E+02	    1.993572E-04	    6.988784E-03	    2.808033E+04	    1.427388E+06	
    1.204722E-02	    1.406441E-03	    1.417168E-02	   -1.000000E+00	    1.624406E-03	    1.600000E-03	    8.010000E+02	    1.355862E-04	    6.259202E-03	    3.697737E+04	    1.440678E+06	
    1.209526E-02	    9.840631E-04	    9.934166E-03	   -1.000000E+00	    1.615975E-03	    1.600000E-03	    8.010000E+02	    8.874953E-05	    5.479233E-03	    4.945227E+04	    1.453324E+06	
    1.212121E-02	    6.715442E-04	    6.803354E-03	   -1.000000E+00	    1.610076E-03	    1.600000E-03	    8.010000E+02	    5.597723E-05	    4.681476E-03	    6.698906E+04	    1.468727E+06	
    1.213480E-02	    4.480546E-04	    4.560593E-03	   -1.000000E+00	    1.606134E-03	    1.600000E-03	    8.010000E+02	    3.407881E-05	    3.898255E-03	    9.162592E+04	    1.486021E+06	
    1.214180E-02	    2.931506E-04	    2.983254E-03	   -1.000000E+00	    1.603605E-03	    1.600000E-03	    8.010000E+02	    2.002622E-05	    3.144975E-03	    1.257914E+05	    1.487615E+06	
    1.214540E-02	    1.887584E-04	    1.871201E-03	   -1.000000E+00	    1.602037E-03	    1.600000E-03	    8.010000E+02	    1.131418E-05	    2.421362E-03	    1.714230E+05	    1.412958E+06	
    1.214727E-02	    1.201061E-04	    1.063724E-03	   -1.000000E+00	    1.601163E-03	    1.600000E-03	    8.010000E+02	    6.459425E-06	    1.949396E-03	    2.417345E+05	    1.128423E+06	
    1.214828E-02	    7.586553E-05	    4.484189E-04	   -1.000000E+00	    1.601121E-03	    1.600000E-03	    8.010000E+02	    6.225918E-06	    4.539116E-03	    5.839832E+05	    4.996399E+05	
    1.214860E-02	    6.022064E-05	    0.000000E+00	    0.000000E+00	    1.000000E-03	    1.000000E-03	    1.000000E+03	    0.000000E+00	    0.000000E+00	    0.000000E+00	    0.000000E+00	
   -1.214765E-02	    6.019477E-05	    0.000000E+00	    0.000000E+00	    1.000000E-03	    1.000000E-03	    1.000000E+03	    0.000000E+00	    0.000000E+00	    0.000000E+00	    0.000000E+00	
