Title="Fields"
Variables="X""Y""Velocity""Phi""Effective Viscosity""Dynamic Viscosity""Density""Eddy Viscosity""K""Omega""S"
Zone I=52 J=52 F=POINT
   -1.214864E-02	    6.022430E-05	    0.000000E+00	    0.000000E+00	    1.000000E-03	    1.000000E-03	    1.000000E+03	    0.000000E+00	    0.000000E+00	    0.000000E+00	    0.000000E+00	
   -1.214840E-02	    7.587059E-05	    0.000000E+00	    0.000000E+00	    1.000000E-03	    1.000000E-03	    1.000000E+03	    0.000000E+00	    0.000000E+00	    0.000000E+00	    0.000000E+00	
   -1.214760E-02	    1.201162E-04	    0.000000E+00	    0.000000E+00	    1.000000E-03	    1.000000E-03	    1.000000E+03	    0.000000E+00	    0.000000E+00	    0.000000E+00	    0.000000E+00	
   -1.214604E-02	    1.887791E-04	    0.000000E+00	    0.000000E+00	    1.000000E-03	    1.000000E-03	    1.000000E+03	    0.000000E+00	    0.000000E+00	    0.000000E+00	    0.000000E+00	
   -1.214292E-02	    2.931943E-04	    0.000000E+00	    0.000000E+00	    1.000000E-03	    1.000000E-03	    1.000000E+03	    0.000000E+00	    0.000000E+00	    0.000000E+00	    0.000000E+00	
   -1.213664E-02	    4.481479E-04	    0.000000E+00	    0.000000E+00	    1.000000E-03	    1.000000E-03	    1.000000E+03	    0.000000E+00	    0.000000E+00	    0.000000E+00	    0.000000E+00	
   -1.212408E-02	    6.717413E-04	    0.000000E+00	    0.000000E+00	    1.000000E-03	    1.000000E-03	    1.000000E+03	    0.000000E+00	    0.000000E+00	    0.000000E+00	    0.000000E+00	
   -1.209956E-02	    9.844691E-04	    0.000000E+00	    0.000000E+00	    1.000000E-03	    1.000000E-03	    1.000000E+03	    0.000000E+00	    0.000000E+00	    0.000000E+00	    0.000000E+00	
   -1.205344E-02	    1.407248E-03	    0.000000E+00	    0.000000E+00	    1.000000E-03	    1.000000E-03	    1.000000E+03	    0.000000E+00	    0.000000E+00	    0.000000E+00	    0.000000E+00	
   -1.197068E-02	    1.958259E-03	    0.000000E+00	    0.000000E+00	    1.000000E-03	    1.000000E-03	    1.000000E+03	    0.000000E+00	    0.000000E+00	    0.000000E+00	    0.000000E+00	
   -1.182998E-02	    2.648730E-03	    0.000000E+00	    0.000000E+00	    1.000000E-03	    1.000000E-03	    1.000000E+03	    0.000000E+00	    0.000000E+00	    0.000000E+00	    0.000000E+00	
   -1.160451E-02	    3.478208E-03	    0.000000E+00	    0.000000E+00	    1.000000E-03	    1.000000E-03	    1.000000E+03	    0.000000E+00	    0.000000E+00	    0.000000E+00	    0.000000E+00	
   -1.126508E-02	    4.430482E-03	    0.000000E+00	    0.000000E+00	    1.000000E-03	    1.000000E-03	    1.000000E+03	    0.000000E+00	    0.000000E+00	    0.000000E+00	    0.000000E+00	
   -1.078595E-02	    5.471869E-03	    0.000000E+00	    0.000000E+00	    1.000000E-03	    1.000000E-03	    1.000000E+03	    0.000000E+00	    0.000000E+00	    0.000000E+00	    0.000000E+00	
   -1.015216E-02	    6.553542E-03	    0.000000E+00	    0.000000E+00	    1.000000E-03	    1.000000E-03	    1.000000E+03	    0.000000E+00	    0.000000E+00	    0.000000E+00	    0.000000E+00	
   -9.365676E-03	    7.618437E-03	    0.000000E+00	    0.000000E+00	    1.000000E-03	    1.000000E-03	    1.000000E+03	    0.000000E+00	    0.000000E+00	    0.000000E+00	    0.000000E+00	
   -8.447592E-03	    8.611236E-03	    0.000000E+00	    0.000000E+00	    1.000000E-03	    1.000000E-03	    1.000000E+03	    0.000000E+00	    0.000000E+00	    0.000000E+00	    0.000000E+00	
   -7.434908E-03	    9.488112E-03	    0.000000E+00	    0.000000E+00	    1.000000E-03	    1.000000E-03	    1.000000E+03	    0.000000E+00	    0.000000E+00	    0.000000E+00	    0.000000E+00	
   -6.373132E-03	    1.022286E-02	    0.000000E+00	    0.000000E+00	    1.000000E-03	    1.000000E-03	    1.000000E+03	    0.000000E+00	    0.000000E+00	    0.000000E+00	    0.000000E+00	
   -5.307702E-03	    1.080785E-02	    0.000000E+00	    0.000000E+00	    1.000000E-03	    1.000000E-03	    1.000000E+03	    0.000000E+00	    0.000000E+00	    0.000000E+00	    0.000000E+00	
   -4.277189E-03	    1.125075E-02	    0.000000E+00	    0.000000E+00	    1.000000E-03	    1.000000E-03	    1.000000E+03	    0.000000E+00	    0.000000E+00	    0.000000E+00	    0.000000E+00	
   -3.309761E-03	    1.156901E-02	    0.000000E+00	    0.000000E+00	    1.000000E-03	    1.000000E-03	    1.000000E+03	    0.000000E+00	    0.000000E+00	    0.000000E+00	    0.000000E+00	
   -2.422724E-03	    1.178450E-02	    0.000000E+00	    0.000000E+00	    1.000000E-03	    1.000000E-03	    1.000000E+03	    0.000000E+00	    0.000000E+00	    0.000000E+00	    0.000000E+00	
   -1.624046E-03	    1.191947E-02	    0.000000E+00	    0.000000E+00	    1.000000E-03	    1.000000E-03	    1.000000E+03	    0.000000E+00	    0.000000E+00	    0.000000E+00	    0.000000E+00	
   -9.147101E-04	    1.199402E-02	    0.000000E+00	    0.000000E+00	    1.000000E-03	    1.000000E-03	    1.000000E+03	    0.000000E+00	    0.000000E+00	    0.000000E+00	    0.000000E+00	
   -2.910617E-04	    1.202501E-02	    0.000000E+00	    0.000000E+00	    1.000000E-03	    1.000000E-03	    1.000000E+03	    0.000000E+00	    0.000000E+00	    0.000000E+00	    0.000000E+00	
    2.910617E-04	    1.202501E-02	    0.000000E+00	    0.000000E+00	    1.000000E-03	    1.000000E-03	    1.000000E+03	    0.000000E+00	    0.000000E+00	    0.000000E+00	    0.000000E+00	
    9.147101E-04	    1.199402E-02	    0.000000E+00	    0.000000E+00	    1.000000E-03	    1.000000E-03	    1.000000E+03	    0.000000E+00	    0.000000E+00	    0.000000E+00	    0.000000E+00	
    1.624046E-03	    1.191947E-02	    0.000000E+00	    0.000000E+00	    1.000000E-03	    1.000000E-03	    1.000000E+03	    0.000000E+00	    0.000000E+00	    0.000000E+00	    0.000000E+00	
    2.422724E-03	    1.178450E-02	    0.000000E+00	    0.000000E+00	    1.000000E-03	    1.000000E-03	    1.000000E+03	    0.000000E+00	    0.000000E+00	    0.000000E+00	    0.000000E+00	
    3.309761E-03	    1.156901E-02	    0.000000E+00	    0.000000E+00	    1.000000E-03	    1.000000E-03	    1.000000E+03	    0.000000E+00	    0.000000E+00	    0.000000E+00	    0.000000E+00	
    4.277189E-03	    1.125075E-02	    0.000000E+00	    0.000000E+00	    1.000000E-03	    1.000000E-03	    1.000000E+03	    0.000000E+00	    0.000000E+00	    0.000000E+00	    0.000000E+00	
    5.307702E-03	    1.080785E-02	    0.000000E+00	    0.000000E+00	    1.000000E-03	    1.000000E-03	    1.000000E+03	    0.000000E+00	    0.000000E+00	    0.000000E+00	    0.000000E+00	
    6.373132E-03	    1.022286E-02	    0.000000E+00	    0.000000E+00	    1.000000E-03	    1.000000E-03	    1.000000E+03	    0.000000E+00	    0.000000E+00	    0.000000E+00	    0.000000E+00	
    7.434908E-03	    9.488112E-03	    0.000000E+00	    0.000000E+00	    1.000000E-03	    1.000000E-03	    1.000000E+03	    0.000000E+00	    0.000000E+00	    0.000000E+00	    0.000000E+00	
    8.447592E-03	    8.611236E-03	    0.000000E+00	    0.000000E+00	    1.000000E-03	    1.000000E-03	    1.000000E+03	    0.000000E+00	    0.000000E+00	    0.000000E+00	    0.000000E+00	
    9.365676E-03	    7.618437E-03	    0.000000E+00	    0.000000E+00	    1.000000E-03	    1.000000E-03	    1.000000E+03	    0.000000E+00	    0.000000E+00	    0.000000E+00	    0.000000E+00	
    1.015216E-02	    6.553542E-03	    0.000000E+00	    0.000000E+00	    1.000000E-03	    1.000000E-03	    1.000000E+03	    0.000000E+00	    0.000000E+00	    0.000000E+00	    0.000000E+00	
    1.078595E-02	    5.471869E-03	    0.000000E+00	    0.000000E+00	    1.000000E-03	    1.000000E-03	    1.000000E+03	    0.000000E+00	    0.000000E+00	    0.000000E+00	    0.000000E+00	
    1.126508E-02	    4.430482E-03	    0.000000E+00	    0.000000E+00	    1.000000E-03	    1.000000E-03	    1.000000E+03	    0.000000E+00	    0.000000E+00	    0.000000E+00	    0.000000E+00	
    1.160451E-02	    3.478208E-03	    0.000000E+00	    0.000000E+00	    1.000000E-03	    1.000000E-03	    1.000000E+03	    0.000000E+00	    0.000000E+00	    0.000000E+00	    0.000000E+00	
    1.182998E-02	    2.648730E-03	    0.000000E+00	    0.000000E+00	    1.000000E-03	    1.000000E-03	    1.000000E+03	    0.000000E+00	    0.000000E+00	    0.000000E+00	    0.000000E+00	
    1.197068E-02	    1.958259E-03	    0.000000E+00	    0.000000E+00	    1.000000E-03	    1.000000E-03	    1.000000E+03	    0.000000E+00	    0.000000E+00	    0.000000E+00	    0.000000E+00	
    1.205344E-02	    1.407248E-03	    0.000000E+00	    0.000000E+00	    1.000000E-03	    1.000000E-03	    1.000000E+03	    0.000000E+00	    0.000000E+00	    0.000000E+00	    0.000000E+00	
    1.209956E-02	    9.844691E-04	    0.000000E+00	    0.000000E+00	    1.000000E-03	    1.000000E-03	    1.000000E+03	    0.000000E+00	    0.000000E+00	    0.000000E+00	    0.000000E+00	
    1.212408E-02	    6.717413E-04	    0.000000E+00	    0.000000E+00	    1.000000E-03	    1.000000E-03	    1.000000E+03	    0.000000E+00	    0.000000E+00	    0.000000E+00	    0.000000E+00	
    1.213664E-02	    4.481479E-04	    0.000000E+00	    0.000000E+00	    1.000000E-03	    1.000000E-03	    1.000000E+03	    0.000000E+00	    0.000000E+00	    0.000000E+00	    0.000000E+00	
    1.214292E-02	    2.931943E-04	    0.000000E+00	    0.000000E+00	    1.000000E-03	    1.000000E-03	    1.000000E+03	    0.000000E+00	    0.000000E+00	    0.000000E+00	    0.000000E+00	
    1.214604E-02	    1.887791E-04	    0.000000E+00	    0.000000E+00	    1.000000E-03	    1.000000E-03	    1.000000E+03	    0.000000E+00	    0.000000E+00	    0.000000E+00	    0.000000E+00	
    1.214760E-02	    1.201162E-04	    0.000000E+00	    0.000000E+00	    1.000000E-03	    1.000000E-03	    1.000000E+03	    0.000000E+00	    0.000000E+00	    0.000000E+00	    0.000000E+00	
    1.214840E-02	    7.587059E-05	    0.000000E+00	    0.000000E+00	    1.000000E-03	    1.000000E-03	    1.000000E+03	    0.000000E+00	    0.000000E+00	    0.000000E+00	    0.000000E+00	
    1.214864E-02	    6.022430E-05	    0.000000E+00	    0.000000E+00	    1.000000E-03	    1.000000E-03	    1.000000E+03	    0.000000E+00	    0.000000E+00	    0.000000E+00	    0.000000E+00	
   -1.214823E-02	    6.021683E-05	    0.000000E+00	    0.000000E+00	    1.000000E-03	    1.000000E-03	    1.000000E+03	    0.000000E+00	    0.000000E+00	    0.000000E+00	    0.000000E+00	
   -1.214788E-02	    7.586052E-05	    1.431678E-04	   -1.000000E+00	    1.000789E-03	    1.000000E-03	    1.000000E+03	    3.586693E-06	    9.692589E-04	    2.702375E+05	    7.708134E+04	
   -1.214679E-02	    1.200973E-04	    4.410107E-04	   -1.000000E+00	    1.000820E-03	    1.000000E-03	    1.000000E+03	    3.727991E-06	    4.177878E-04	    1.120678E+05	    2.945185E+05	
   -1.214476E-02	    1.887422E-04	    8.279307E-04	   -1.000000E+00	    1.001468E-03	    1.000000E-03	    1.000000E+03	    6.673552E-06	    5.420405E-04	    8.122219E+04	    4.199285E+05	
   -1.214094E-02	    2.931200E-04	    1.369811E-03	   -1.000000E+00	    1.002663E-03	    1.000000E-03	    1.000000E+03	    1.210470E-05	    7.393455E-04	    6.107923E+04	    4.759122E+05	
   -1.213361E-02	    4.479957E-04	    2.153849E-03	   -1.000000E+00	    1.004631E-03	    1.000000E-03	    1.000000E+03	    2.104795E-05	    9.568966E-04	    4.546270E+04	    5.025195E+05	
   -1.211955E-02	    6.714295E-04	    3.284175E-03	   -1.000000E+00	    1.007749E-03	    1.000000E-03	    1.000000E+03	    3.522127E-05	    1.192747E-03	    3.386438E+04	    5.181919E+05	
   -1.209293E-02	    9.838410E-04	    4.876589E-03	   -1.000000E+00	    1.012483E-03	    1.000000E-03	    1.000000E+03	    5.674305E-05	    1.441581E-03	    2.540541E+04	    5.290414E+05	
   -1.204401E-02	    1.406019E-03	    7.048012E-03	   -1.000000E+00	    1.019344E-03	    1.000000E-03	    1.000000E+03	    8.792952E-05	    1.694526E-03	    1.927141E+04	    5.362889E+05	
   -1.195765E-02	    1.955950E-03	    9.898718E-03	   -1.000000E+00	    1.028814E-03	    1.000000E-03	    1.000000E+03	    1.309731E-04	    1.942124E-03	    1.482842E+04	    5.393610E+05	
   -1.181256E-02	    2.644593E-03	    1.348829E-02	   -1.000000E+00	    1.041246E-03	    1.000000E-03	    1.000000E+03	    1.874818E-04	    2.176016E-03	    1.160655E+04	    5.370835E+05	
   -1.158209E-02	    3.471175E-03	    1.780991E-02	   -1.000000E+00	    1.056746E-03	    1.000000E-03	    1.000000E+03	    2.579378E-04	    2.389673E-03	    9.264533E+03	    5.284940E+05	
   -1.123737E-02	    4.419185E-03	    2.277009E-02	   -1.000000E+00	    1.075068E-03	    1.000000E-03	    1.000000E+03	    3.412181E-04	    2.578765E-03	    7.557525E+03	    5.137067E+05	
   -1.075321E-02	    5.454763E-03	    2.818197E-02	   -1.000000E+00	    1.095562E-03	    1.000000E-03	    1.000000E+03	    4.343719E-04	    2.741274E-03	    6.310892E+03	    4.943245E+05	
   -1.011527E-02	    6.529136E-03	    3.378265E-02	   -1.000000E+00	    1.117220E-03	    1.000000E-03	    1.000000E+03	    5.328201E-04	    2.877200E-03	    5.399947E+03	    4.729511E+05	
   -9.326135E-03	    7.585587E-03	    3.927273E-02	   -1.000000E+00	    1.138821E-03	    1.000000E-03	    1.000000E+03	    6.310062E-04	    2.987809E-03	    4.734992E+03	    4.521263E+05	
   -8.407302E-03	    8.569391E-03	    4.436775E-02	   -1.000000E+00	    1.159146E-03	    1.000000E-03	    1.000000E+03	    7.233923E-04	    3.075196E-03	    4.251077E+03	    4.335813E+05	
   -7.395856E-03	    9.437422E-03	    4.884707E-02	   -1.000000E+00	    1.177208E-03	    1.000000E-03	    1.000000E+03	    8.054905E-04	    3.142160E-03	    3.900927E+03	    4.181290E+05	
   -6.337080E-03	    1.016411E-02	    5.258361E-02	   -1.000000E+00	    1.192399E-03	    1.000000E-03	    1.000000E+03	    8.745390E-04	    3.191961E-03	    3.649879E+03	    4.058999E+05	
   -5.275969E-03	    1.074227E-02	    5.554651E-02	   -1.000000E+00	    1.204519E-03	    1.000000E-03	    1.000000E+03	    9.296301E-04	    3.227941E-03	    3.472285E+03	    3.966297E+05	
   -4.250575E-03	    1.117974E-02	    5.778173E-02	   -1.000000E+00	    1.213704E-03	    1.000000E-03	    1.000000E+03	    9.713819E-04	    3.253175E-03	    3.349017E+03	    3.898771E+05	
   -3.288589E-03	    1.149396E-02	    5.938306E-02	   -1.000000E+00	    1.220307E-03	    1.000000E-03	    1.000000E+03	    1.001394E-03	    3.270280E-03	    3.265727E+03	    3.851583E+05	
   -2.406939E-03	    1.170666E-02	    6.046449E-02	   -1.000000E+00	    1.224777E-03	    1.000000E-03	    1.000000E+03	    1.021714E-03	    3.281365E-03	    3.211629E+03	    3.820201E+05	
   -1.613344E-03	    1.183985E-02	    6.114001E-02	   -1.000000E+00	    1.227575E-03	    1.000000E-03	    1.000000E+03	    1.034432E-03	    3.288073E-03	    3.178625E+03	    3.800708E+05	
   -9.086451E-04	    1.191341E-02	    6.151165E-02	   -1.000000E+00	    1.229118E-03	    1.000000E-03	    1.000000E+03	    1.041447E-03	    3.291649E-03	    3.160651E+03	    3.789900E+05	
   -2.891269E-04	    1.194400E-02	    6.166433E-02	   -1.000000E+00	    1.229756E-03	    1.000000E-03	    1.000000E+03	    1.044347E-03	    3.293022E-03	    3.153189E+03	    3.785234E+05	
    2.891269E-04	    1.194400E-02	    6.166433E-02	   -1.000000E+00	    1.229756E-03	    1.000000E-03	    1.000000E+03	    1.044347E-03	    3.293022E-03	    3.153189E+03	    3.785234E+05	
    9.086451E-04	    1.191341E-02	    6.151165E-02	   -1.000000E+00	    1.229118E-03	    1.000000E-03	    1.000000E+03	    1.041447E-03	    3.291649E-03	    3.160651E+03	    3.789900E+05	
    1.613344E-03	    1.183985E-02	    6.114001E-02	   -1.000000E+00	    1.227575E-03	    1.000000E-03	    1.000000E+03	    1.034432E-03	    3.288073E-03	    3.178625E+03	    3.800708E+05	
    2.406939E-03	    1.170666E-02	    6.046449E-02	   -1.000000E+00	    1.224777E-03	    1.000000E-03	    1.000000E+03	    1.021714E-03	    3.281365E-03	    3.211629E+03	    3.820201E+05	
    3.288589E-03	    1.149396E-02	    5.938306E-02	   -1.000000E+00	    1.220307E-03	    1.000000E-03	    1.000000E+03	    1.001394E-03	    3.270280E-03	    3.265727E+03	    3.851583E+05	
    4.250575E-03	    1.117974E-02	    5.778173E-02	   -1.000000E+00	    1.213704E-03	    1.000000E-03	    1.000000E+03	    9.713819E-04	    3.253175E-03	    3.349017E+03	    3.898771E+05	
    5.275969E-03	    1.074227E-02	    5.554651E-02	   -1.000000E+00	    1.204519E-03	    1.000000E-03	    1.000000E+03	    9.296301E-04	    3.227941E-03	    3.472285E+03	    3.966297E+05	
    6.337080E-03	    1.016411E-02	    5.258361E-02	   -1.000000E+00	    1.192399E-03	    1.000000E-03	    1.000000E+03	    8.745390E-04	    3.191961E-03	    3.649879E+03	    4.058999E+05	
    7.395856E-03	    9.437422E-03	    4.884707E-02	   -1.000000E+00	    1.177208E-03	    1.000000E-03	    1.000000E+03	    8.054905E-04	    3.142160E-03	    3.900927E+03	    4.181290E+05	
    8.407302E-03	    8.569391E-03	    4.436775E-02	   -1.000000E+00	    1.159146E-03	    1.000000E-03	    1.000000E+03	    7.233923E-04	    3.075196E-03	    4.251077E+03	    4.335813E+05	
    9.326135E-03	    7.585587E-03	    3.927273E-02	   -1.000000E+00	    1.138821E-03	    1.000000E-03	    1.000000E+03	    6.310062E-04	    2.987809E-03	    4.734992E+03	    4.521263E+05	
    1.011527E-02	    6.529136E-03	    3.378265E-02	   -1.000000E+00	    1.117220E-03	    1.000000E-03	    1.000000E+03	    5.328201E-04	    2.877200E-03	    5.399947E+03	    4.729511E+05	
    1.075321E-02	    5.454763E-03	    2.818197E-02	   -1.000000E+00	    1.095562E-03	    1.000000E-03	    1.000000E+03	    4.343719E-04	    2.741274E-03	    6.310892E+03	    4.943245E+05	
    1.123737E-02	    4.419185E-03	    2.277009E-02	   -1.000000E+00	    1.075068E-03	    1.000000E-03	    1.000000E+03	    3.412181E-04	    2.578765E-03	    7.557525E+03	    5.137067E+05	
    1.158209E-02	    3.471175E-03	    1.780991E-02	   -1.000000E+00	    1.056746E-03	    1.000000E-03	    1.000000E+03	    2.579378E-04	    2.389673E-03	    9.264533E+03	    5.284940E+05	
    1.181256E-02	    2.644593E-03	    1.348829E-02	   -1.000000E+00	    1.041246E-03	    1.000000E-03	    1.000000E+03	    1.874818E-04	    2.176016E-03	    1.160655E+04	    5.370835E+05	
    1.195765E-02	    1.955950E-03	    9.898718E-03	   -1.000000E+00	    1.028814E-03	    1.000000E-03	    1.000000E+03	    1.309731E-04	    1.942124E-03	    1.482842E+04	    5.393610E+05	
    1.204401E-02	    1.406019E-03	    7.048012E-03	   -1.000000E+00	    1.019344E-03	    1.000000E-03	    1.000000E+03	    8.792952E-05	    1.694526E-03	    1.927141E+04	    5.362889E+05	
    1.209293E-02	    9.838410E-04	    4.876589E-03	   -1.000000E+00	    1.012483E-03	    1.000000E-03	    1.000000E+03	    5.674305E-05	    1.441581E-03	    2.540541E+04	    5.290414E+05	
    1.211955E-02	    6.714295E-04	    3.284175E-03	   -1.000000E+00	    1.007749E-03	    1.000000E-03	    1.000000E+03	    3.522127E-05	    1.192747E-03	    3.386438E+04	    5.181919E+05	
    1.213361E-02	    4.479957E-04	    2.153849E-03	   -1.000000E+00	    1.004631E-03	    1.000000E-03	    1.000000E+03	    2.104795E-05	    9.568966E-04	    4.546270E+04	    5.025195E+05	
    1.214094E-02	    2.931200E-04	    1.369811E-03	   -1.000000E+00	    1.002663E-03	    1.000000E-03	    1.000000E+03	    1.210470E-05	    7.393455E-04	    6.107923E+04	    4.759122E+05	
    1.214476E-02	    1.887422E-04	    8.279307E-04	   -1.000000E+00	    1.001468E-03	    1.000000E-03	    1.000000E+03	    6.673552E-06	    5.420405E-04	    8.122219E+04	    4.199285E+05	
    1.214679E-02	    1.200973E-04	    4.410107E-04	   -1.000000E+00	    1.000820E-03	    1.000000E-03	    1.000000E+03	    3.727991E-06	    4.177878E-04	    1.120678E+05	    2.945185E+05	
    1.214788E-02	    7.586052E-05	    1.431678E-04	   -1.000000E+00	    1.000789E-03	    1.000000E-03	    1.000000E+03	    3.586693E-06	    9.692589E-04	    2.702375E+05	    7.708134E+04	
    1.214823E-02	    6.021683E-05	    0.000000E+00	    0.000000E+00	    1.000000E-03	    1.000000E-03	    1.000000E+03	    0.000000E+00	    0.000000E+00	    0.000000E+00	    0.000000E+00	
   -1.214729E-02	    6.018900E-05	    0.000000E+00	    0.000000E+00	    1.000000E-03	    1.000000E-03	    1.000000E+03	    0.000000E+00	    0.000000E+00	    0.000000E+00	    0.000000E+00	
