Title="Fields"
Variables="X""Y""Velocity""Phi""Effective Viscosity""Dynamic Viscosity""Density""Eddy Viscosity""K""Epsilon""S"
Zone I=52 J=52 F=POINT
   -1.093477E-02	    4.889258E-05	    0.000000E+00	    0.000000E+00	    1.000000E-03	    1.000000E-03	    1.000000E+03	    0.000000E+00	    0.000000E+00	    0.000000E+00	    0.000000E+00	
   -1.092862E-02	    6.156151E-05	    0.000000E+00	    0.000000E+00	    1.000000E-03	    1.000000E-03	    1.000000E+03	    0.000000E+00	    0.000000E+00	    0.000000E+00	    0.000000E+00	
   -1.091118E-02	    9.731329E-05	    0.000000E+00	    0.000000E+00	    1.000000E-03	    1.000000E-03	    1.000000E+03	    0.000000E+00	    0.000000E+00	    0.000000E+00	    0.000000E+00	
   -1.088394E-02	    1.525789E-04	    0.000000E+00	    0.000000E+00	    1.000000E-03	    1.000000E-03	    1.000000E+03	    0.000000E+00	    0.000000E+00	    0.000000E+00	    0.000000E+00	
   -1.084208E-02	    2.361209E-04	    0.000000E+00	    0.000000E+00	    1.000000E-03	    1.000000E-03	    1.000000E+03	    0.000000E+00	    0.000000E+00	    0.000000E+00	    0.000000E+00	
   -1.077906E-02	    3.589988E-04	    0.000000E+00	    0.000000E+00	    1.000000E-03	    1.000000E-03	    1.000000E+03	    0.000000E+00	    0.000000E+00	    0.000000E+00	    0.000000E+00	
   -1.068619E-02	    5.340300E-04	    0.000000E+00	    0.000000E+00	    1.000000E-03	    1.000000E-03	    1.000000E+03	    0.000000E+00	    0.000000E+00	    0.000000E+00	    0.000000E+00	
   -1.055259E-02	    7.744276E-04	    0.000000E+00	    0.000000E+00	    1.000000E-03	    1.000000E-03	    1.000000E+03	    0.000000E+00	    0.000000E+00	    0.000000E+00	    0.000000E+00	
   -1.036521E-02	    1.091508E-03	    0.000000E+00	    0.000000E+00	    1.000000E-03	    1.000000E-03	    1.000000E+03	    0.000000E+00	    0.000000E+00	    0.000000E+00	    0.000000E+00	
   -1.010960E-02	    1.491677E-03	    0.000000E+00	    0.000000E+00	    1.000000E-03	    1.000000E-03	    1.000000E+03	    0.000000E+00	    0.000000E+00	    0.000000E+00	    0.000000E+00	
   -9.771388E-03	    1.973329E-03	    0.000000E+00	    0.000000E+00	    1.000000E-03	    1.000000E-03	    1.000000E+03	    0.000000E+00	    0.000000E+00	    0.000000E+00	    0.000000E+00	
   -9.338800E-03	    2.524697E-03	    0.000000E+00	    0.000000E+00	    1.000000E-03	    1.000000E-03	    1.000000E+03	    0.000000E+00	    0.000000E+00	    0.000000E+00	    0.000000E+00	
   -8.805812E-03	    3.123744E-03	    0.000000E+00	    0.000000E+00	    1.000000E-03	    1.000000E-03	    1.000000E+03	    0.000000E+00	    0.000000E+00	    0.000000E+00	    0.000000E+00	
   -8.175052E-03	    3.740736E-03	    0.000000E+00	    0.000000E+00	    1.000000E-03	    1.000000E-03	    1.000000E+03	    0.000000E+00	    0.000000E+00	    0.000000E+00	    0.000000E+00	
   -7.459221E-03	    4.343106E-03	    0.000000E+00	    0.000000E+00	    1.000000E-03	    1.000000E-03	    1.000000E+03	    0.000000E+00	    0.000000E+00	    0.000000E+00	    0.000000E+00	
   -6.680117E-03	    4.901174E-03	    0.000000E+00	    0.000000E+00	    1.000000E-03	    1.000000E-03	    1.000000E+03	    0.000000E+00	    0.000000E+00	    0.000000E+00	    0.000000E+00	
   -5.865372E-03	    5.392838E-03	    0.000000E+00	    0.000000E+00	    1.000000E-03	    1.000000E-03	    1.000000E+03	    0.000000E+00	    0.000000E+00	    0.000000E+00	    0.000000E+00	
   -5.043999E-03	    5.805886E-03	    0.000000E+00	    0.000000E+00	    1.000000E-03	    1.000000E-03	    1.000000E+03	    0.000000E+00	    0.000000E+00	    0.000000E+00	    0.000000E+00	
   -4.242249E-03	    6.137687E-03	    0.000000E+00	    0.000000E+00	    1.000000E-03	    1.000000E-03	    1.000000E+03	    0.000000E+00	    0.000000E+00	    0.000000E+00	    0.000000E+00	
   -3.480861E-03	    6.393063E-03	    0.000000E+00	    0.000000E+00	    1.000000E-03	    1.000000E-03	    1.000000E+03	    0.000000E+00	    0.000000E+00	    0.000000E+00	    0.000000E+00	
   -2.774014E-03	    6.581443E-03	    0.000000E+00	    0.000000E+00	    1.000000E-03	    1.000000E-03	    1.000000E+03	    0.000000E+00	    0.000000E+00	    0.000000E+00	    0.000000E+00	
   -2.129654E-03	    6.714255E-03	    0.000000E+00	    0.000000E+00	    1.000000E-03	    1.000000E-03	    1.000000E+03	    0.000000E+00	    0.000000E+00	    0.000000E+00	    0.000000E+00	
   -1.550615E-03	    6.803001E-03	    0.000000E+00	    0.000000E+00	    1.000000E-03	    1.000000E-03	    1.000000E+03	    0.000000E+00	    0.000000E+00	    0.000000E+00	    0.000000E+00	
   -1.035992E-03	    6.858105E-03	    0.000000E+00	    0.000000E+00	    1.000000E-03	    1.000000E-03	    1.000000E+03	    0.000000E+00	    0.000000E+00	    0.000000E+00	    0.000000E+00	
   -5.824343E-04	    6.888386E-03	    0.000000E+00	    0.000000E+00	    1.000000E-03	    1.000000E-03	    1.000000E+03	    0.000000E+00	    0.000000E+00	    0.000000E+00	    0.000000E+00	
   -1.851905E-04	    6.900942E-03	    0.000000E+00	    0.000000E+00	    1.000000E-03	    1.000000E-03	    1.000000E+03	    0.000000E+00	    0.000000E+00	    0.000000E+00	    0.000000E+00	
    1.851905E-04	    6.900942E-03	    0.000000E+00	    0.000000E+00	    1.000000E-03	    1.000000E-03	    1.000000E+03	    0.000000E+00	    0.000000E+00	    0.000000E+00	    0.000000E+00	
    5.824343E-04	    6.888386E-03	    0.000000E+00	    0.000000E+00	    1.000000E-03	    1.000000E-03	    1.000000E+03	    0.000000E+00	    0.000000E+00	    0.000000E+00	    0.000000E+00	
    1.035992E-03	    6.858105E-03	    0.000000E+00	    0.000000E+00	    1.000000E-03	    1.000000E-03	    1.000000E+03	    0.000000E+00	    0.000000E+00	    0.000000E+00	    0.000000E+00	
    1.550615E-03	    6.803001E-03	    0.000000E+00	    0.000000E+00	    1.000000E-03	    1.000000E-03	    1.000000E+03	    0.000000E+00	    0.000000E+00	    0.000000E+00	    0.000000E+00	
    2.129654E-03	    6.714255E-03	    0.000000E+00	    0.000000E+00	    1.000000E-03	    1.000000E-03	    1.000000E+03	    0.000000E+00	    0.000000E+00	    0.000000E+00	    0.000000E+00	
    2.774014E-03	    6.581443E-03	    0.000000E+00	    0.000000E+00	    1.000000E-03	    1.000000E-03	    1.000000E+03	    0.000000E+00	    0.000000E+00	    0.000000E+00	    0.000000E+00	
    3.480861E-03	    6.393063E-03	    0.000000E+00	    0.000000E+00	    1.000000E-03	    1.000000E-03	    1.000000E+03	    0.000000E+00	    0.000000E+00	    0.000000E+00	    0.000000E+00	
    4.242249E-03	    6.137687E-03	    0.000000E+00	    0.000000E+00	    1.000000E-03	    1.000000E-03	    1.000000E+03	    0.000000E+00	    0.000000E+00	    0.000000E+00	    0.000000E+00	
    5.043999E-03	    5.805886E-03	    0.000000E+00	    0.000000E+00	    1.000000E-03	    1.000000E-03	    1.000000E+03	    0.000000E+00	    0.000000E+00	    0.000000E+00	    0.000000E+00	
    5.865372E-03	    5.392838E-03	    0.000000E+00	    0.000000E+00	    1.000000E-03	    1.000000E-03	    1.000000E+03	    0.000000E+00	    0.000000E+00	    0.000000E+00	    0.000000E+00	
    6.680117E-03	    4.901174E-03	    0.000000E+00	    0.000000E+00	    1.000000E-03	    1.000000E-03	    1.000000E+03	    0.000000E+00	    0.000000E+00	    0.000000E+00	    0.000000E+00	
    7.459221E-03	    4.343106E-03	    0.000000E+00	    0.000000E+00	    1.000000E-03	    1.000000E-03	    1.000000E+03	    0.000000E+00	    0.000000E+00	    0.000000E+00	    0.000000E+00	
    8.175052E-03	    3.740736E-03	    0.000000E+00	    0.000000E+00	    1.000000E-03	    1.000000E-03	    1.000000E+03	    0.000000E+00	    0.000000E+00	    0.000000E+00	    0.000000E+00	
    8.805812E-03	    3.123744E-03	    0.000000E+00	    0.000000E+00	    1.000000E-03	    1.000000E-03	    1.000000E+03	    0.000000E+00	    0.000000E+00	    0.000000E+00	    0.000000E+00	
    9.338800E-03	    2.524697E-03	    0.000000E+00	    0.000000E+00	    1.000000E-03	    1.000000E-03	    1.000000E+03	    0.000000E+00	    0.000000E+00	    0.000000E+00	    0.000000E+00	
    9.771388E-03	    1.973329E-03	    0.000000E+00	    0.000000E+00	    1.000000E-03	    1.000000E-03	    1.000000E+03	    0.000000E+00	    0.000000E+00	    0.000000E+00	    0.000000E+00	
    1.010960E-02	    1.491677E-03	    0.000000E+00	    0.000000E+00	    1.000000E-03	    1.000000E-03	    1.000000E+03	    0.000000E+00	    0.000000E+00	    0.000000E+00	    0.000000E+00	
    1.036521E-02	    1.091508E-03	    0.000000E+00	    0.000000E+00	    1.000000E-03	    1.000000E-03	    1.000000E+03	    0.000000E+00	    0.000000E+00	    0.000000E+00	    0.000000E+00	
    1.055259E-02	    7.744276E-04	    0.000000E+00	    0.000000E+00	    1.000000E-03	    1.000000E-03	    1.000000E+03	    0.000000E+00	    0.000000E+00	    0.000000E+00	    0.000000E+00	
    1.068619E-02	    5.340300E-04	    0.000000E+00	    0.000000E+00	    1.000000E-03	    1.000000E-03	    1.000000E+03	    0.000000E+00	    0.000000E+00	    0.000000E+00	    0.000000E+00	
    1.077906E-02	    3.589988E-04	    0.000000E+00	    0.000000E+00	    1.000000E-03	    1.000000E-03	    1.000000E+03	    0.000000E+00	    0.000000E+00	    0.000000E+00	    0.000000E+00	
    1.084208E-02	    2.361209E-04	    0.000000E+00	    0.000000E+00	    1.000000E-03	    1.000000E-03	    1.000000E+03	    0.000000E+00	    0.000000E+00	    0.000000E+00	    0.000000E+00	
    1.088394E-02	    1.525789E-04	    0.000000E+00	    0.000000E+00	    1.000000E-03	    1.000000E-03	    1.000000E+03	    0.000000E+00	    0.000000E+00	    0.000000E+00	    0.000000E+00	
    1.091118E-02	    9.731329E-05	    0.000000E+00	    0.000000E+00	    1.000000E-03	    1.000000E-03	    1.000000E+03	    0.000000E+00	    0.000000E+00	    0.000000E+00	    0.000000E+00	
    1.092862E-02	    6.156151E-05	    0.000000E+00	    0.000000E+00	    1.000000E-03	    1.000000E-03	    1.000000E+03	    0.000000E+00	    0.000000E+00	    0.000000E+00	    0.000000E+00	
    1.093477E-02	    4.889258E-05	    0.000000E+00	    0.000000E+00	    1.000000E-03	    1.000000E-03	    1.000000E+03	    0.000000E+00	    0.000000E+00	    0.000000E+00	    0.000000E+00	
   -1.093453E-02	    4.877692E-05	    0.000000E+00	    0.000000E+00	    1.000000E-03	    1.000000E-03	    1.000000E+03	    0.000000E+00	    0.000000E+00	    0.000000E+00	    0.000000E+00	
   -1.092832E-02	    6.141553E-05	    2.237897E-04	   -1.000000E+00	    1.600643E-03	    1.600000E-03	    8.010000E+02	    3.572069E-06	    3.568921E-03	    2.570567E+02	    2.975863E+05	
   -1.091071E-02	    9.708100E-05	    5.468163E-04	   -1.000000E+00	    1.600630E-03	    1.600000E-03	    8.010000E+02	    3.502035E-06	    1.372838E-03	    3.879653E+01	    7.146562E+05	
   -1.088320E-02	    1.522110E-04	    9.805583E-04	   -1.000000E+00	    1.601087E-03	    1.600000E-03	    8.010000E+02	    6.040147E-06	    1.661265E-03	    3.293862E+01	    9.345702E+05	
   -1.084095E-02	    2.355428E-04	    1.579057E-03	   -1.000000E+00	    1.601937E-03	    1.600000E-03	    8.010000E+02	    1.076148E-05	    2.202037E-03	    3.248269E+01	    1.011569E+06	
   -1.077734E-02	    3.581002E-04	    2.403809E-03	   -1.000000E+00	    1.603298E-03	    1.600000E-03	    8.010000E+02	    1.832001E-05	    2.760824E-03	    2.999346E+01	    1.013410E+06	
   -1.068366E-02	    5.326519E-04	    3.528006E-03	   -1.000000E+00	    1.605383E-03	    1.600000E-03	    8.010000E+02	    2.990514E-05	    3.324811E-03	    2.664791E+01	    9.854595E+05	
   -1.054896E-02	    7.723468E-04	    5.028040E-03	   -1.000000E+00	    1.608440E-03	    1.600000E-03	    8.010000E+02	    4.689155E-05	    3.887591E-03	    2.323494E+01	    9.502977E+05	
   -1.036019E-02	    1.088422E-03	    6.966953E-03	   -1.000000E+00	    1.612702E-03	    1.600000E-03	    8.010000E+02	    7.056476E-05	    4.432370E-03	    2.007054E+01	    9.163579E+05	
   -1.010291E-02	    1.487195E-03	    9.376254E-03	   -1.000000E+00	    1.618321E-03	    1.600000E-03	    8.010000E+02	    1.017860E-04	    4.938765E-03	    1.727522E+01	    8.858614E+05	
   -9.762836E-03	    1.966980E-03	    1.223864E-02	   -1.000000E+00	    1.625317E-03	    1.600000E-03	    8.010000E+02	    1.406518E-04	    5.389838E-03	    1.488954E+01	    8.587750E+05	
   -9.328346E-03	    2.515959E-03	    1.547744E-02	   -1.000000E+00	    1.633527E-03	    1.600000E-03	    8.010000E+02	    1.862622E-04	    5.775918E-03	    1.291197E+01	    8.344923E+05	
   -8.793618E-03	    3.112107E-03	    1.895875E-02	   -1.000000E+00	    1.642607E-03	    1.600000E-03	    8.010000E+02	    2.367076E-04	    6.095074E-03	    1.131412E+01	    8.124974E+05	
   -8.161500E-03	    3.725781E-03	    2.250876E-02	   -1.000000E+00	    1.652077E-03	    1.600000E-03	    8.010000E+02	    2.893178E-04	    6.351269E-03	    1.005127E+01	    7.925693E+05	
   -7.444868E-03	    4.324588E-03	    2.594321E-02	   -1.000000E+00	    1.661403E-03	    1.600000E-03	    8.010000E+02	    3.411291E-04	    6.552047E-03	    9.072150E+00	    7.747783E+05	
   -6.665615E-03	    4.879070E-03	    2.909955E-02	   -1.000000E+00	    1.670096E-03	    1.600000E-03	    8.010000E+02	    3.894224E-04	    6.706399E-03	    8.325931E+00	    7.593234E+05	
   -5.851364E-03	    5.367349E-03	    3.186125E-02	   -1.000000E+00	    1.677788E-03	    1.600000E-03	    8.010000E+02	    4.321535E-04	    6.823126E-03	    7.766115E+00	    7.463470E+05	
   -5.031033E-03	    5.777387E-03	    3.416811E-02	   -1.000000E+00	    1.684269E-03	    1.600000E-03	    8.010000E+02	    4.681628E-04	    6.910006E-03	    7.352499E+00	    7.358372E+05	
   -4.230723E-03	    6.106663E-03	    3.601264E-02	   -1.000000E+00	    1.689487E-03	    1.600000E-03	    8.010000E+02	    4.971524E-04	    6.973568E-03	    7.051727E+00	    7.276238E+05	
   -3.471011E-03	    6.360028E-03	    3.742707E-02	   -1.000000E+00	    1.693510E-03	    1.600000E-03	    8.010000E+02	    5.194982E-04	    7.019151E-03	    6.836915E+00	    7.214267E+05	
   -2.765933E-03	    6.546889E-03	    3.846737E-02	   -1.000000E+00	    1.696480E-03	    1.600000E-03	    8.010000E+02	    5.359975E-04	    7.051053E-03	    6.686830E+00	    7.169150E+05	
   -2.123326E-03	    6.678611E-03	    3.919903E-02	   -1.000000E+00	    1.698574E-03	    1.600000E-03	    8.010000E+02	    5.476357E-04	    7.072682E-03	    6.584936E+00	    7.137562E+05	
   -1.545946E-03	    6.766620E-03	    3.968685E-02	   -1.000000E+00	    1.699974E-03	    1.600000E-03	    8.010000E+02	    5.554130E-04	    7.086705E-03	    6.518500E+00	    7.116462E+05	
   -1.032847E-03	    6.821264E-03	    3.998897E-02	   -1.000000E+00	    1.700843E-03	    1.600000E-03	    8.010000E+02	    5.602398E-04	    7.095182E-03	    6.477809E+00	    7.103250E+05	
   -5.806587E-04	    6.851290E-03	    4.015428E-02	   -1.000000E+00	    1.701320E-03	    1.600000E-03	    8.010000E+02	    5.628881E-04	    7.099682E-03	    6.455513E+00	    7.095796E+05	
   -1.846249E-04	    6.863740E-03	    4.022192E-02	   -1.000000E+00	    1.701516E-03	    1.600000E-03	    8.010000E+02	    5.639801E-04	    7.101382E-03	    6.446099E+00	    7.092402E+05	
    1.846249E-04	    6.863740E-03	    4.022192E-02	   -1.000000E+00	    1.701516E-03	    1.600000E-03	    8.010000E+02	    5.639801E-04	    7.101382E-03	    6.446099E+00	    7.092402E+05	
    5.806587E-04	    6.851290E-03	    4.015428E-02	   -1.000000E+00	    1.701320E-03	    1.600000E-03	    8.010000E+02	    5.628881E-04	    7.099682E-03	    6.455513E+00	    7.095796E+05	
    1.032847E-03	    6.821264E-03	    3.998897E-02	   -1.000000E+00	    1.700843E-03	    1.600000E-03	    8.010000E+02	    5.602398E-04	    7.095182E-03	    6.477809E+00	    7.103250E+05	
    1.545946E-03	    6.766620E-03	    3.968685E-02	   -1.000000E+00	    1.699974E-03	    1.600000E-03	    8.010000E+02	    5.554130E-04	    7.086705E-03	    6.518500E+00	    7.116462E+05	
    2.123326E-03	    6.678611E-03	    3.919903E-02	   -1.000000E+00	    1.698574E-03	    1.600000E-03	    8.010000E+02	    5.476357E-04	    7.072682E-03	    6.584936E+00	    7.137562E+05	
    2.765933E-03	    6.546889E-03	    3.846737E-02	   -1.000000E+00	    1.696480E-03	    1.600000E-03	    8.010000E+02	    5.359975E-04	    7.051053E-03	    6.686830E+00	    7.169150E+05	
    3.471011E-03	    6.360028E-03	    3.742707E-02	   -1.000000E+00	    1.693510E-03	    1.600000E-03	    8.010000E+02	    5.194982E-04	    7.019151E-03	    6.836915E+00	    7.214267E+05	
    4.230723E-03	    6.106663E-03	    3.601264E-02	   -1.000000E+00	    1.689487E-03	    1.600000E-03	    8.010000E+02	    4.971524E-04	    6.973568E-03	    7.051727E+00	    7.276238E+05	
    5.031033E-03	    5.777387E-03	    3.416811E-02	   -1.000000E+00	    1.684269E-03	    1.600000E-03	    8.010000E+02	    4.681628E-04	    6.910006E-03	    7.352499E+00	    7.358372E+05	
    5.851364E-03	    5.367349E-03	    3.186125E-02	   -1.000000E+00	    1.677788E-03	    1.600000E-03	    8.010000E+02	    4.321535E-04	    6.823126E-03	    7.766115E+00	    7.463470E+05	
    6.665615E-03	    4.879070E-03	    2.909955E-02	   -1.000000E+00	    1.670096E-03	    1.600000E-03	    8.010000E+02	    3.894224E-04	    6.706399E-03	    8.325931E+00	    7.593234E+05	
    7.444868E-03	    4.324588E-03	    2.594321E-02	   -1.000000E+00	    1.661403E-03	    1.600000E-03	    8.010000E+02	    3.411291E-04	    6.552047E-03	    9.072150E+00	    7.747783E+05	
    8.161500E-03	    3.725781E-03	    2.250876E-02	   -1.000000E+00	    1.652077E-03	    1.600000E-03	    8.010000E+02	    2.893178E-04	    6.351269E-03	    1.005127E+01	    7.925693E+05	
    8.793618E-03	    3.112107E-03	    1.895875E-02	   -1.000000E+00	    1.642607E-03	    1.600000E-03	    8.010000E+02	    2.367076E-04	    6.095074E-03	    1.131412E+01	    8.124974E+05	
    9.328346E-03	    2.515959E-03	    1.547744E-02	   -1.000000E+00	    1.633527E-03	    1.600000E-03	    8.010000E+02	    1.862622E-04	    5.775918E-03	    1.291197E+01	    8.344923E+05	
    9.762836E-03	    1.966980E-03	    1.223864E-02	   -1.000000E+00	    1.625317E-03	    1.600000E-03	    8.010000E+02	    1.406518E-04	    5.389838E-03	    1.488954E+01	    8.587750E+05	
    1.010291E-02	    1.487195E-03	    9.376254E-03	   -1.000000E+00	    1.618321E-03	    1.600000E-03	    8.010000E+02	    1.017860E-04	    4.938765E-03	    1.727522E+01	    8.858614E+05	
    1.036019E-02	    1.088422E-03	    6.966953E-03	   -1.000000E+00	    1.612702E-03	    1.600000E-03	    8.010000E+02	    7.056476E-05	    4.432370E-03	    2.007054E+01	    9.163579E+05	
    1.054896E-02	    7.723468E-04	    5.028040E-03	   -1.000000E+00	    1.608440E-03	    1.600000E-03	    8.010000E+02	    4.689155E-05	    3.887591E-03	    2.323494E+01	    9.502977E+05	
    1.068366E-02	    5.326519E-04	    3.528006E-03	   -1.000000E+00	    1.605383E-03	    1.600000E-03	    8.010000E+02	    2.990514E-05	    3.324811E-03	    2.664791E+01	    9.854595E+05	
    1.077734E-02	    3.581002E-04	    2.403809E-03	   -1.000000E+00	    1.603298E-03	    1.600000E-03	    8.010000E+02	    1.832001E-05	    2.760824E-03	    2.999346E+01	    1.013410E+06	
    1.084095E-02	    2.355428E-04	    1.579057E-03	   -1.000000E+00	    1.601937E-03	    1.600000E-03	    8.010000E+02	    1.076148E-05	    2.202037E-03	    3.248269E+01	    1.011569E+06	
    1.088320E-02	    1.522110E-04	    9.805583E-04	   -1.000000E+00	    1.601087E-03	    1.600000E-03	    8.010000E+02	    6.040147E-06	    1.661265E-03	    3.293862E+01	    9.345702E+05	
    1.091071E-02	    9.708100E-05	    5.468163E-04	   -1.000000E+00	    1.600630E-03	    1.600000E-03	    8.010000E+02	    3.502035E-06	    1.372838E-03	    3.879653E+01	    7.146562E+05	
    1.092832E-02	    6.141553E-05	    2.237897E-04	   -1.000000E+00	    1.600643E-03	    1.600000E-03	    8.010000E+02	    3.572069E-06	    3.568921E-03	    2.570567E+02	    2.975863E+05	
    1.093453E-02	    4.877692E-05	    0.000000E+00	    0.000000E+00	    1.000000E-03	    1.000000E-03	    1.000000E+03	    0.000000E+00	    0.000000E+00	    0.000000E+00	    0.000000E+00	
   -1.093398E-02	    4.850483E-05	    0.000000E+00	    0.000000E+00	    1.000000E-03	    1.000000E-03	    1.000000E+03	    0.000000E+00	    0.000000E+00	    0.000000E+00	    0.000000E+00	
